a,-11252783290787700,0.256700060311939,-4.305592617397891,-3.94140625,1.6240234375,-6.8740234375,2.0017969451931714,2.0017969451931714,2.0017969451931714,1.414848735799404,1.414848735799404,1.414848735799404,1.5907446529400242,1.236376813162049,2.605250985199838,19.24992431816587,13.756127716537621,37.161607215276284,177.24371633752244,99.15770870736087,40.21173698384201,192,96,48,2.0017969451931714,2.0017969451931714,2.0017969451931714,1.414848735799404,1.414848735799404,1.414848735799404,2074671.566746475,2345703.295703172,2327500.3181876373,2743010922.5692086,3230917244.6283283,3197530744.750249,0.15734457841253366,0.027300028227390034,0.0367700107649798,0.16994225657820916,0.155548095703125,-0.005615234375,-0.031494140625,0.8077392578125,2.0017969451931714,2.0017969451931714,2.0017969451931714,2.0017969451931714,1.414848735799404,1.414848735799404,1.414848735799404,1.414848735799404,0.0019819895749308863,0.0023837962366803473,0.0023978239888539574,0.0019026248715578553,0.0025808546794906183,0.0033010636882689955,0.003326989763355854,0.0024439892415490123,0.6171472824203169,-0.0011470899754748556,0.208462339286172,2.013212551723882,-0.09478465070198988,1.6110913608596162,2.0017969451931714,2.0017969451931714,2.0017969451931714,1.414848735799404,1.414848735799404,1.414848735799404,0.005094924675569328,0.0012311061579541864,0.007940729416644872,0.009088218374749579,0.0013677993776826782,0.016422613056244668,-0.1509433962264151,1.522911051212938,-0.5471698113207547,-1.0754716981132075,-1.0539083557951483,-2.3638814016172507,-2.210242587601078,-1.4986522911051212,0,2,-1,-1,-2,-2,-3,-2,2.0054054054054054,2.0054054054054054,2.0054054054054054,2.0054054054054054,2.0054054054054054,2.0054054054054054,2.0054054054054054,2.0054054054054054,1.4161233722403586,1.4161233722403586,1.4161233722403586,1.4161233722403586,1.4161233722403586,1.4161233722403586,1.4161233722403586,1.4161233722403586,817.6399711707772,572.1891758965086,305.6971595127952,693.6532952699282,716.5039591935794,2054.763919907085,984.0025320930362,963.3931011309423,54938.161561645335,34133.237862794274,14797.210126410755,44121.2601890342,46069.77549827722,187704.1515264717,70326.59507793668,68369.54335202854
a,-4.0962302959070795,-2.460047358960177,0.9210691198838495,-4.12890625,-9.7509765625,0.62646484375,2.008888888888889,2.008888888888889,2.008888888888889,1.4173527750312866,1.4173527750312866,1.4173527750312866,11.465063381084503,9.577108285806567,1.2122301300085152,157.472513532496,123.88403538665034,7.873169087968073,375.84513274336285,269.64767699115043,-116.99751106194691,336,176,-200.0625,2.008888888888889,2.008888888888889,2.008888888888889,1.4173527750312866,1.4173527750312866,1.4173527750312866,6657941.879426182,6203783.487557861,11084239.48698322,7629384088.33548,6943498132.787805,15053726239.057407,0.2594472159326604,0.13510834010301437,0.11492946928581305,-0.2607681139380531,0.32098388671875,-0.31048583984375,0.3577880859375,-0.59100341796875,2.008888888888889,2.008888888888889,2.008888888888889,2.008888888888889,1.4173527750312866,1.4173527750312866,1.4173527750312866,1.4173527750312866,0.00798504661871822,0.009129780651985418,0.009626407444352551,0.017287427886101752,0.009721637454475135,0.011622956284745882,0.012473503860057066,0.02722763928286697,-0.30480841647356643,-0.5701965306110536,-0.6280439426625424,-1.3873928356437837,-1.2212928682330124,-2.0393287547896497,2.008888888888889,2.008888888888889,2.008888888888889,1.4173527750312866,1.4173527750312866,1.4173527750312866,0.06301380839681012,0.015251176288769033,0.081705120935767,0.15273917851639335,0.023037778650818047,0.21595761170119612,-0.02666666666666667,1.56,2.6933333333333334,1.64,-1.1466666666666667,-2.16,0.72,0.05333333333333334,0,-1,3,3,2,-2,1,-3,2.027027027027027,2.027027027027027,2.027027027027027,2.027027027027027,2.027027027027027,2.027027027027027,2.027027027027027,2.027027027027027,1.4237369936287485,1.4237369936287485,1.4237369936287485,1.4237369936287485,1.4237369936287485,1.4237369936287485,1.4237369936287485,1.4237369936287485,1050.046120505161,433.4753398157121,869.4905593068902,701.9349879277046,774.8314277252169,484.58594862128257,280.00376110149006,2104.8388947974345,45008.884974863955,13834.802024089395,34997.76003222017,26307.703686450033,30012.12348828102,16051.471191131259,7725.12604876129,113757.20203224964
a,-2.0207141437361726,-0.884521484375,-2.1419148402931416,-3.25390625,-3.68798828125,-1.2490234375,2.0044345898004434,2.0044345898004434,2.0044345898004434,1.4157805584907723,1.4157805584907723,1.4157805584907723,4.465519270696767,3.6696159641516743,3.9285951810672644,56.43416480558739,43.43838133467087,47.573216716910316,134.84928097345133,241.07370022123894,-23.218611725663717,208,216,-160.0625,2.0044345898004434,2.0044345898004434,2.0044345898004434,1.4157805584907723,1.4157805584907723,1.4157805584907723,5322753.001092841,4127725.439046757,6610360.708263034,7132271982.831617,5081522826.990646,9520936954.618881,0.052255681130738384,0.11207391519462113,0.04414448695900166,-0.04034099747649336,0.17254638671875,-0.21673583984375,0.131103515625,-0.168975830078125,2.0044345898004434,2.0044345898004434,2.0044345898004434,2.0044345898004434,1.4157805584907723,1.4157805584907723,1.4157805584907723,1.4157805584907723,0.005628960716646642,0.0051293482312733405,0.005678106991767812,0.006499050859089106,0.007684526313069564,0.006788842355818508,0.007774114039995608,0.009307778915203044,-0.2914087210372228,-0.1939103100701779,-0.31407474139112296,-1.3364524899161918,-0.41582579994797353,-1.7078681534995972,2.0044345898004434,2.0044345898004434,2.0044345898004434,1.4157805584907723,1.4157805584907723,1.4157805584907723,0.031243534078885044,0.004284412614986615,0.03209979800639929,0.07551960016118403,0.005340327165387195,0.07829172782751621,2.033333333333333,0.05333333333333334,1.2133333333333334,-0.09333333333333334,-0.8666666666666667,-0.76,-0.3933333333333333,1.5533333333333332,3,-1,2,2,0,-2,0,4.5,2.0134228187919465,2.0134228187919465,2.0134228187919465,2.0134228187919465,2.0134228187919465,2.0134228187919465,2.0134228187919465,2.0134228187919465,1.4189513095212065,1.4189513095212065,1.4189513095212065,1.4189513095212065,1.4189513095212065,1.4189513095212065,1.4189513095212065,1.4189513095212065,1063.9330403449385,528.2702274642025,976.0651153684832,434.2726313358095,385.41799689746585,2180.167394073542,153.79256553572102,1002.1354653297706,57709.78829394306,22690.214419019674,51444.088277176605,17473.51859928538,14902.978432884405,150204.70611958246,4378.017992716788,53284.26697959937
a,-1.5032427067946825,-1.862616985552068,-0.8419714157127031,-2.87890625,-5.00146484375,-0.49951171875,2.002958579881657,2.002958579881657,2.002958579881657,1.4152591917672384,1.4152591917672384,1.4152591917672384,2.7331576088402465,2.969147604901485,2.4349516384642227,33.554372733487774,37.47186198196737,28.76404830955766,106.76929468242245,240.2578471196455,44.07043943870015,176,256,-48.0625,2.002958579881657,2.002958579881657,2.002958579881657,1.4152591917672384,1.4152591917672384,1.4152591917672384,3718362.4224904524,2839253.799939547,3995179.3072402114,5058229298.859789,3530220591.521549,5566445017.852774,-0.019571369120430206,0.05924674503208087,-0.01334352929975997,-0.03768330381046898,0.07879638671875,-0.1697998046875,0.0140380859375,-0.1224365234375,2.002958579881657,2.002958579881657,2.002958579881657,2.002958579881657,1.4152591917672384,1.4152591917672384,1.4152591917672384,1.4152591917672384,0.004197571447541326,0.003729450170153504,0.004241804354425888,0.004326838993832013,0.00594557258775876,0.005078350064640961,0.006029256140368362,0.006190948664253378,-0.1898453860748617,-0.1580429231991842,-0.31513084791287643,-1.1913534354592086,-0.33408340479938353,-1.7078681534995972,2.002958579881657,2.002958579881657,2.002958579881657,1.4152591917672384,1.4152591917672384,1.4152591917672384,0.019078173995700953,0.0026925713483021384,0.02147486105108134,0.044762255651017664,0.0032891664349775237,0.05241272095027192,1.768888888888889,-1.0888888888888888,1.1377777777777778,0.03111111111111111,-0.41333333333333333,-0.43555555555555553,-0.9288888888888889,0.6533333333333333,3,-2,1,2,0,-2,-1,2,2.0089285714285716,2.0089285714285716,2.0089285714285716,2.0089285714285716,2.0089285714285716,2.0089285714285716,2.0089285714285716,2.0089285714285716,1.417366773784602,1.417366773784602,1.417366773784602,1.417366773784602,1.417366773784602,1.417366773784602,1.417366773784602,1.417366773784602,3065.5431978856095,492.71919357731144,1170.9026832704903,3194.939921240276,1192.337972788383,1443.8535199822384,107.01892970895622,694.6099172131744,270855.3551070228,23669.739580057987,75062.30693121062,286205.36290931853,76900.05901680571,99256.36219386461,3090.35456741371,37415.26384961972
a,-3.514194724834071,-3.64224378197594,1.9486526894358407,-4.378662109375,-8.2509765625,1.751220703125,2.0022148394241417,2.0022148394241417,2.0022148394241417,1.4149964096859546,1.4149964096859546,1.4149964096859546,2.8997237675256624,2.9585169961424445,1.0549072039299305,39.982042932755235,41.06655147449581,10.383453467440054,116.04258849557522,196.04521570796462,6.092851216814159,192,144,-64.0625,2.0022148394241417,2.0022148394241417,2.0022148394241417,1.4149964096859546,1.4149964096859546,1.4149964096859546,2746142.752867807,2353679.6409949563,3169954.47647154,3718378735.373596,3027280135.834574,4502566930.778745,0.08200687644755945,0.23139021881913716,0.02391173776272124,-0.1626062983960177,0.2349853515625,0.173858642578125,-0.002166748046875,-0.29461669921875,2.0022148394241417,2.0022148394241417,2.0022148394241417,2.0022148394241417,1.4149964096859546,1.4149964096859546,1.4149964096859546,1.4149964096859546,0.0026909707116648963,0.002110552366628144,0.0030050887903211526,0.00387995771510986,0.00361910712297669,0.0026176866200607555,0.0041930742686924,0.005895112990695171,-0.15609477071731268,-0.14570237712508222,0.0034633736665804498,-1.0414404054820607,-0.31885565770817903,0.309244441506195,2.0022148394241417,2.0022148394241417,2.0022148394241417,1.4149964096859546,1.4149964096859546,1.4149964096859546,0.013863999544589445,0.0019746766705145734,0.012036851371929102,0.03220382990274659,0.0023954336013838782,0.026673090642751578,0.5960264900662252,-1.4768211920529801,0.28807947019867547,-0.4304635761589404,-0.5231788079470199,-0.6291390728476821,-0.9072847682119205,-1.1158940397350994,1,-3,0,0,0,-1,-0.5,-1,2.006644518272425,2.006644518272425,2.006644518272425,2.006644518272425,2.006644518272425,2.006644518272425,2.006644518272425,2.006644518272425,1.4165608064154624,1.4165608064154624,1.4165608064154624,1.4165608064154624,1.4165608064154624,1.4165608064154624,1.4165608064154624,1.4165608064154624,2352.716352979903,374.0401021209619,898.5965702919686,2410.5002538724298,893.0600861778908,1083.9912365995451,79.74240958272128,555.2717967596623,209939.94342607664,18081.17030740599,58177.53595167482,216842.90812668612,57700.09842382118,74708.49871917644,2302.792398413321,30620.32539830804
a,-3.412860003228886,-4.599901554076819,2.91162460340858,-3.75390625,-9.75146484375,4.37646484375,2.0017985611510793,2.0017985611510793,2.0017985611510793,1.414849306870198,1.414849306870198,1.414849306870198,2.319426699804898,2.7729295029678527,0.6913146894664479,31.817979011560986,40.37230009633066,6.3347979613181575,137.66340970350404,149.98203054806828,-4.143025606469003,208,112,-48.0625,2.0017985611510793,2.0017985611510793,2.0017985611510793,1.414849306870198,1.414849306870198,1.414849306870198,2156481.419581962,2061207.6298090797,2615051.95793233,2887305128.2368255,2718487726.797914,3733694823.9059415,0.28353407483644993,0.22656957415557616,0.0765487794284872,-0.005603334438875786,0.37567138671875,0.25164794921875,0.21661376953125,-0.0911865234375,2.0017985611510793,2.0017985611510793,2.0017985611510793,2.0017985611510793,1.414849306870198,1.414849306870198,1.414849306870198,1.414849306870198,0.0015643965136914466,0.0017289352034687315,0.002251436394290528,0.00251093830754243,0.001882034183879723,0.00215048628798563,0.003058050345014611,0.003536821251136973,0.23350330129599467,-0.17188702673373724,0.16856361248839483,0.2300661462382413,-0.3422112710763138,1.1841858193353114,2.0017985611510793,2.0017985611510793,2.0017985611510793,1.414849306870198,1.414849306870198,1.414849306870198,0.0077146129292686326,0.001678918925808266,0.008314715694308871,0.015797337954092636,0.002067940415790629,0.017456677687903936,0.3261455525606469,-1.5498652291105122,0.07547169811320754,-0.5471698113207547,-0.6549865229110512,-0.6630727762803235,-0.9083557951482479,-1.0296495956873315,0,-2,0,-1,-1,-1,-1,-1,2.0054054054054054,2.0054054054054054,2.0054054054054054,2.0054054054054054,2.0054054054054054,2.0054054054054054,2.0054054054054054,2.0054054054054054,1.4161233722403586,1.4161233722403586,1.4161233722403586,1.4161233722403586,1.4161233722403586,1.4161233722403586,1.4161233722403586,1.4161233722403586,1929.2289712920592,305.7332228819495,737.2538491306253,1969.4061853827966,730.787503415512,884.12561201012,64.97688570771884,450.9223778746686,172571.73682446245,14799.537692441989,47857.209088263146,177380.15633277054,47298.364033562466,60973.800504764324,1877.0240016495445,24846.221614681817
a,-1.9168853056595623,-4.7189191358246925,2.136945264496928,-2.81640625,-10.25146484375,1.5009765625,2.0015372790161416,2.0015372790161416,2.0015372790161416,1.4147569681808043,1.4147569681808043,1.4147569681808043,1.5590029791763589,2.4122042130092383,0.7034903308982017,19.7393533601794,35.32556284816167,6.831999695057029,145.99102342549924,152.3807123655914,10.624519969278033,192,144,0,2.0015372790161416,2.0015372790161416,2.0015372790161416,1.4147569681808043,1.4147569681808043,1.4147569681808043,1819595.0936850794,1755557.5885019358,2187207.495609965,2425697669.355747,2312546293.157426,3100204260.9530525,0.2697917979250672,0.16396944716961886,0.12509117771037345,0.10379994007116455,0.36004638671875,0.228485107421875,0.2474365234375,0.1436767578125,2.0015372790161416,2.0015372790161416,2.0015372790161416,2.0015372790161416,1.4147569681808043,1.4147569681808043,1.4147569681808043,1.4147569681808043,0.0013703740831416571,0.0016416807442351817,0.001782772085662714,0.0018123565776382567,0.001662095001698758,0.00211473165922757,0.0023604678803570553,0.0024128400105390265,0.1968966127732219,-0.21876612854656272,0.4141220895682521,0.3644191075257831,-0.5173665599258381,1.7620555345943814,2.0015372790161416,2.0015372790161416,2.0015372790161416,1.4147569681808043,1.4147569681808043,1.4147569681808043,0.0068492395082197415,0.0015544761748601623,0.005487797881927944,0.014203437533664797,0.0019662968713486033,0.010569825197401128,-1.3525345622119815,-1.7788018433179724,-0.2304147465437788,-0.576036866359447,-0.7764976958525346,-0.8709677419354839,-1.1244239631336406,-1.792626728110599,-1,-2,0,-1,-1,-1,-1,-1,2.004618937644342,2.004618937644342,2.004618937644342,2.004618937644342,2.004618937644342,2.004618937644342,2.004618937644342,2.004618937644342,1.4158456616610238,1.4158456616610238,1.4158456616610238,1.4158456616610238,1.4158456616610238,1.4158456616610238,1.4158456616610238,1.4158456616610238,1716.6267445062701,264.1352387762946,636.920184231942,1685.6594802885409,627.5624771968708,761.0692498289893,56.462747925573446,397.1177177713091,155619.64098274,12831.133886669137,41489.98322546063,151887.85177978355,40679.21229132629,52609.25397193846,1640.007838912848,22099.82977012169
a,-1.50880001646414,-4.969231974422161,2.672736379907376,-2.75390625,-9.87548828125,2.50146484375,2.001360544217687,2.001360544217687,2.001360544217687,1.4146945056151476,1.4146945056151476,1.4146945056151476,1.287887017134889,2.213688762762579,0.5526995107110368,15.93582595300441,32.811516619724195,5.158494807579657,150.28428789938818,147.05438477226377,13.065899048266486,192,144,0,2.001360544217687,2.001360544217687,2.001360544217687,1.4146945056151476,1.4146945056151476,1.4146945056151476,1599784.0425793766,1567434.200777487,1929117.3758017411,2127907302.2061887,2070729238.7675395,2731172271.8649893,0.21805990025917743,0.09482000313349762,0.11855512731825714,0.111853209909819,0.313720703125,0.111328125,0.26373291015625,0.1746826171875,2.001360544217687,2.001360544217687,2.001360544217687,2.001360544217687,1.4146945056151476,1.4146945056151476,1.4146945056151476,1.4146945056151476,0.0013264287715880191,0.001625047271585622,0.0015947397748896466,0.0015838601205429537,0.0016574844742631358,0.0021728290351270773,0.0021189660209126266,0.0020997132536941686,0.07315056401867265,-0.1895552496743539,0.41468240578795856,-0.31841560857601253,-0.43530950287785847,1.7728296680247428,2.001360544217687,2.001360544217687,2.001360544217687,1.4146945056151476,1.4146945056151476,1.4146945056151476,0.006906084737218812,0.001309777626018553,0.004854963925684321,0.014957078098202643,0.0016298000024983072,0.009349439319776129,-1.4081632653061225,-1.726530612244898,-0.18775510204081633,-0.5387755102040817,-0.789795918367347,-0.8040816326530612,-1.0163265306122449,-1.8938775510204082,-1,-2,0,-1,-1,-1,-1,-1,2.0040899795501024,2.0040899795501024,2.0040899795501024,2.0040899795501024,2.0040899795501024,2.0040899795501024,2.0040899795501024,2.0040899795501024,1.415658849988267,1.415658849988267,1.415658849988267,1.415658849988267,1.415658849988267,1.415658849988267,1.415658849988267,1.415658849988267,1523.0213692382918,233.5077814145098,563.5699309402333,1492.2954823787825,556.3028795019554,672.9751586362634,49.63618341583363,353.2303407122719,138146.54331396404,11336.191404952337,36699.69412250902,134443.08176618727,36070.07986331439,46494.05282392313,1438.1246631093827,19685.329730174868
a,-2.0366234961177736,-3.5845735556964944,3.145139349342712,-3.25390625,-8.751220703125,4.438720703125,2.0012307692307694,2.0012307692307694,2.0012307692307694,1.4146486380832413,1.4146486380832413,1.4146486380832413,1.2738468582060325,1.6317122569809732,0.44828537056643647,16.237897941929237,22.589066375784114,4.034406009675501,125.17104858548585,143.79843173431735,1.7210562730627306,160,144,0,2.0012307692307694,2.0012307692307694,2.0012307692307694,1.4146486380832413,1.4146486380832413,1.4146486380832413,1506152.3818977012,1425579.742549626,1775219.7166832634,2030168403.4671743,1886668221.2379503,2527607667.594774,0.1565838165095518,0.05682635805850246,0.10152177235883687,0.16581078561029752,0.26629638671875,0.064453125,0.1380615234375,0.2918701171875,2.0012307692307694,2.0012307692307694,2.0012307692307694,2.0012307692307694,1.4146486380832413,1.4146486380832413,1.4146486380832413,1.4146486380832413,0.001329710766944906,0.001560667750008883,0.0014824402488176774,0.0013128553134398142,0.0017194244347601463,0.002128731018983619,0.001987664635048235,0.0016904253700298704,-0.006347895001369311,-0.21746814578264514,0.48058735721092755,-0.7745952107281413,-0.5348732780457122,1.8222273476284359,2.0012307692307694,2.0012307692307694,2.0012307692307694,1.4146486380832413,1.4146486380832413,1.4146486380832413,0.006747464406248978,0.0012423070415693578,0.004081451981647719,0.014993199397049097,0.0015704065919022014,0.0076699600568755555,-1.5814814814814815,-2.2462962962962965,-0.7277777777777777,-0.7833333333333333,-0.9629629629629629,-1.224074074074074,-1.5,-1.974074074074074,-1,-2,-1,-1,-1,-1,-1,-1,2.0037105751391464,2.0037105751391464,2.0037105751391464,2.0037105751391464,2.0037105751391464,2.0037105751391464,2.0037105751391464,2.0037105751391464,1.4155248408767493,1.4155248408767493,1.4155248408767493,1.4155248408767493,1.4155248408767493,1.4155248408767493,1.4155248408767493,1.4155248408767493,1387.9986079746411,216.7920758264261,520.5750036433178,1362.311407765611,507.7999115761398,618.7391343516033,303.91970727239357,321.5935893880782,126081.09172924997,10605.28779422031,34101.67159242844,122979.60989119297,32990.43797207266,42934.66056550262,16639.60718557347,17942.14782861083
a,-1.9581427867969192,-3.2503488906161673,3.0222343242121257,-3.00390625,-7.50048828125,4.5009765625,2.001131221719457,2.001131221719457,2.001131221719457,1.4146134531098795,1.4146134531098795,1.4146134531098795,1.1557386647123573,1.4244315437479231,0.4241281198084485,14.668604568512972,19.38346380380559,3.8539437115140354,109.75879734313172,163.58369841718485,8.453116167326172,160,144,0,2.001131221719457,2.001131221719457,2.001131221719457,1.4146134531098795,1.4146134531098795,1.4146134531098795,1418346.8915044228,1269330.15592292,1615531.1712828735,1927314368.8237782,1662169879.5194724,2292607631.3041863,0.1550494464121679,0.0200865698642418,0.08727478751899025,0.1607284416513567,0.25152587890625,0.04833984375,0.12261962890625,0.31451416015625,2.001131221719457,2.001131221719457,2.001131221719457,2.001131221719457,1.4146134531098795,1.4146134531098795,1.4146134531098795,1.4146134531098795,0.0012253910183290054,0.0015181331695719137,0.0013936442919915736,0.0012169485893957434,0.0015858990344032255,0.0021101942563708977,0.0018826887672729765,0.001571347551461905,0.002294349328110669,-0.2204125388717521,0.3946437488012923,-0.7290185464006886,-0.5728154200580384,1.7801665274849958,2.001131221719457,2.001131221719457,2.001131221719457,1.4146134531098795,1.4146134531098795,1.4146134531098795,0.006157560086136114,0.0011476184076393398,0.004127562462700332,0.013649628210718912,0.0014531349618135986,0.008007571340921275,-1.5595238095238095,-2.175170068027211,-0.8656462585034014,-0.8010204081632653,-1.1139455782312926,-1.4200680272108843,-1.5595238095238095,-2.1445578231292517,-1,-2,-1,-1,-1,-1,-1,-1,2.0034071550255534,2.0034071550255534,2.0034071550255534,2.0034071550255534,2.0034071550255534,2.0034071550255534,2.0034071550255534,2.0034071550255534,1.415417660984048,1.415417660984048,1.415417660984048,1.415417660984048,1.415417660984048,1.415417660984048,1.415417660984048,1.415417660984048,1274.3291233197676,198.5269862406932,480.32379209822085,1251.9062493351337,468.75401281242137,644.3532495421314,279.81709604238534,297.3254017295547,115744.73725069877,9702.534039843118,31514.07573615052,113037.23312958555,30506.03565011441,46625.60420913334,15332.91643946485,16625.260584292708
b,-1.4363068797622176,-3.148936301234892,2.5764743887119024,-2.50390625,-7.37646484375,3.87646484375,2.0010515247108307,2.0010515247108307,2.0010515247108307,1.4145852836470592,1.4145852836470592,1.4145852836470592,0.9834344087983258,1.3033904821654332,0.43674484997442736,12.119186312377277,17.643266324064818,4.106293486223068,130.18618628481346,174.94945480819757,-26.59215712033631,160,160,-0.0625,2.0010515247108307,2.0010515247108307,2.0010515247108307,1.4145852836470592,1.4145852836470592,1.4145852836470592,1276961.4815175852,1158433.0535707343,1657420.6601031662,1716787961.2540054,1507674248.770656,2430654661.4448304,0.14768224206023384,0.01725803521577772,0.06258839353159484,0.15662891189486994,0.235595703125,0.04852294921875,0.0911865234375,0.28424072265625,2.0010515247108307,2.0010515247108307,2.0010515247108307,2.0010515247108307,1.4145852836470592,1.4145852836470592,1.4145852836470592,1.4145852836470592,0.0011529807023194128,0.0014174172548926816,0.0013464484160165418,0.0011389590480123351,0.0014982201971633245,0.0019730732857908342,0.0018424648973281795,0.0014739759862528647,0.08269207522763145,-0.2501238373929635,0.32133578308330496,-0.01927760848095802,-0.6642932641223531,1.6898347946864465,2.0010515247108307,2.0010515247108307,2.0010515247108307,1.4145852836470592,1.4145852836470592,1.4145852836470592,0.005295218663545708,0.0011208474810598334,0.00415597567843574,0.01143733375424,0.0014428071625197587,0.008280252729809628,-1.4691943127962086,-2.3696682464454977,-1.2985781990521328,-0.8262243285939969,-0.9415481832543444,-0.7946287519747235,-1.282780410742496,-2.0268562401263823,-2,-2,-1,-1,-1,-1,-1,-1,2.0031645569620253,2.0031645569620253,2.0031645569620253,2.0031645569620253,2.0031645569620253,2.0031645569620253,2.0031645569620253,2.0031645569620253,1.4153319599874883,1.4153319599874883,1.4153319599874883,1.4153319599874883,1.4153319599874883,1.4153319599874883,1.4153319599874883,1.4153319599874883,1181.458171214688,211.19862876683646,452.5290098085665,1163.8077160717048,433.06869003338505,587.754465459807,257.1991706926685,275.00808750103386,107240.55109414924,10799.144744880394,29830.67888139642,105109.72011911996,28132.62680206507,42272.94323893126,14044.102438442982,15355.425589349665
b,-1.6003926494632281,-3.381318012324161,2.8212401379719894,-2.62890625,-7.25,4.62646484375,2.0009876543209875,2.0009876543209875,2.0009876543209875,1.41456270780796,1.41456270780796,1.41456270780796,0.9501054729516841,1.269436681798364,0.3880136456310352,11.818859595667771,17.392467685252953,3.581039783291804,128.12493830207305,164.23130552813424,-9.429170779861797,160,152,0,2.0009876543209875,2.0009876543209875,2.0009876543209875,1.41456270780796,1.41456270780796,1.41456270780796,1203397.987564992,1107271.5936910298,1518549.8222569472,1619666208.628413,1449501575.4037416,2208607490.4883375,0.1148667782692189,0.0021134552574346003,0.10451686064559168,0.10663350925276098,0.196563720703125,0.01727294921875,0.15386962890625,0.14324951171875,2.0009876543209875,2.0009876543209875,2.0009876543209875,2.0009876543209875,1.41456270780796,1.41456270780796,1.41456270780796,1.41456270780796,0.001142080066598286,0.001362385429451825,0.0011843457368707487,0.0011599320594190864,0.0015105735726195753,0.001911084106379821,0.0015855665745080276,0.0015421379206686904,0.08171757160144133,-0.19301745981713966,0.2794384644469199,-0.07753287631319514,-0.43530950287785847,1.647126455593268,2.0009876543209875,2.0009876543209875,2.0009876543209875,1.41456270780796,1.41456270780796,1.41456270780796,0.00497874082424014,0.000956868248891519,0.00408055195414421,0.010757363376114095,0.0011931160068411083,0.008250970403821892,-1.599406528189911,-2.2032640949554896,-1.002967359050445,-0.8189910979228486,-0.9421364985163204,-0.8234421364985163,-1.2225519287833828,-1.9718100890207715,-1,-2,-1,-1,-1,-1,-1,-1,2.0029717682020802,2.0029717682020802,2.0029717682020802,2.0029717682020802,2.0029717682020802,2.0029717682020802,2.0029717682020802,2.0029717682020802,1.4152638510899938,1.4152638510899938,1.4152638510899938,1.4152638510899938,1.4152638510899938,1.4152638510899938,1.4152638510899938,1.4152638510899938,1113.1270961077369,197.01457449139568,421.0350757526473,1092.984535581584,406.79128090159253,552.5494923737442,241.02401112428245,257.77698445067165,101145.43930423609,10051.196702015515,27667.99376461205,98712.46306197523,26427.057715248775,39754.06509601576,13151.250348685007,14383.9716146784
b,-1.2153420193369364,-3.1125648317642955,1.9963461761971175,-2.12890625,-6.25048828125,3.12646484375,2.0009302325581397,2.0009302325581397,2.0009302325581397,1.4145424110142968,1.4145424110142968,1.4145424110142968,0.8374578769535884,1.1466616799321872,0.439229203463627,10.18976337964764,15.492703247187254,4.309912109286523,125.67672013017201,162.7640051139005,1.613145048814505,160,144,16,2.0009302325581397,2.0009302325581397,2.0009302325581397,1.4145424110142968,1.4145424110142968,1.4145424110142968,1137892.7355279776,1045451.4054315655,1407456.8527465267,1533493372.0200925,1369678392.3649046,2036074149.4155545,0.1160414805250465,-0.017670656680395747,0.13687365047325373,0.036601344578103205,0.204345703125,-0.07672119140625,0.2786865234375,0.04986572265625,2.0009302325581397,2.0009302325581397,2.0009302325581397,2.0009302325581397,1.4145424110142968,1.4145424110142968,1.4145424110142968,1.4145424110142968,0.0010743632605867838,0.0013220373069963234,0.0010593584955854265,0.0012192291994194758,0.0014204141877162564,0.0018730027623636138,0.0013940255762213496,0.0016813596089990414,0.0839288741650609,-0.1689250388087769,0.25756166825715293,-0.13578814414543225,-0.35460932845619425,1.5710513561305222,2.0009302325581397,2.0009302325581397,2.0009302325581397,1.4145424110142968,1.4145424110142968,1.4145424110142968,0.0046913829545755055,0.000864869858244794,0.003932455394819075,0.01013789956088861,0.0010636885533719651,0.00801244774872337,-1.255586592178771,-2.0083798882681565,-0.9762569832402235,-0.7779329608938548,-0.8854748603351955,-0.7318435754189944,-1.1075418994413408,-1.8282122905027933,-1,-2,-1,-1,-1,-1,-1,-1,2.0027972027972027,2.0027972027972027,2.0027972027972027,2.0027972027972027,2.0027972027972027,2.0027972027972027,2.0027972027972027,2.0027972027972027,1.4152021773574273,1.4152021773574273,1.4152021773574273,1.4152021773574273,1.4152021773574273,1.4152021773574273,1.4152021773574273,1.4152021773574273,1039.5859164859821,183.98424419017866,396.0478763055023,1028.0141405200225,382.27166285452967,518.8027361583563,225.90304714126117,241.3662516157717,94214.59609456391,9361.494464233165,26019.638546490725,92818.90886820076,24819.925964661026,37294.14754004532,12308.367632094818,13444.347688652253
b,-1.1340907875303665,-2.805306047095848,2.0573014437941697,-2.00390625,-5.87548828125,3.564208984375,2.000883782589483,2.000883782589483,2.000883782589483,1.4145259921929618,1.4145259921929618,1.4145259921929618,0.7845381060251462,1.0377629665508596,0.41184712366692067,9.501179675989322,13.79610101040149,4.023526417447835,114.60161771201413,133.6753257508834,1.1427230565371025,144.0625,144,16,2.000883782589483,2.000883782589483,2.000883782589483,1.4145259921929618,1.4145259921929618,1.4145259921929618,1100089.073201271,1040817.0229909492,1338177.370302713,1491177271.3760543,1385026202.817994,1936319634.4757555,0.10517222805494976,-0.022519061085192138,0.1498336252812362,0.007118710359499227,0.189117431640625,-0.07647705078125,0.3251953125,-0.01324462890625,2.000883782589483,2.000883782589483,2.000883782589483,2.000883782589483,1.4145259921929618,1.4145259921929618,1.4145259921929618,1.4145259921929618,0.0010386771981646065,0.0012652346274755128,0.000985641799260449,0.0012117379879505313,0.0013812308543518234,0.0017968847931839071,0.0012880052244569613,0.0016963043344210003,0.043953493619849966,-0.14068922637456066,0.2627314029707863,-0.310510943257634,-0.29412428746847996,1.5766133038469172,2.000883782589483,2.000883782589483,2.000883782589483,1.4145259921929618,1.4145259921929618,1.4145259921929618,0.004634556621043995,0.0007823669460979925,0.0037222063216016386,0.010146191710872022,0.000946613729909716,0.007574594659625125,-1.1405835543766578,-1.6511936339522546,-0.7824933687002652,-0.8090185676392573,-0.8793103448275862,-0.6061007957559682,-1.063660477453581,-1.8090185676392574,-1,-1,-1,-1,-1,-1,-1,-1,2.00265604249668,2.00265604249668,2.00265604249668,2.00265604249668,2.00265604249668,2.00265604249668,2.00265604249668,2.00265604249668,1.4151523036396754,1.4151523036396754,1.4151523036396754,1.4151523036396754,1.4151523036396754,1.4151523036396754,1.4151523036396754,1.4151523036396754,984.6439084580961,273.92743648960504,764.6476135765557,977.0203419613044,362.97129938760344,490.88353127236843,214.17462137348394,229.0587379514546,89158.4917740477,16192.149051738068,63641.27892371694,88239.27340225593,23566.051920295904,35244.80116320855,11663.112346256581,12756.149487138562
b,-1.1900582897297014,-2.82788917884939,2.4101371460217713,-2.00390625,-5.375,4.376953125,2.000841750841751,2.000841750841751,2.000841750841751,1.4145111349302808,1.4145111349302808,1.4145111349302808,0.7546136752851111,0.9920254580276776,0.3629938295116272,9.168732220023855,13.204039570768256,3.4557478833122057,111.75723075305007,123.73133151030711,6.768379259570888,144,128,16,2.000841750841751,2.000841750841751,2.000841750841751,1.4145111349302808,1.4145111349302808,1.4145111349302808,1052495.1953264696,1007163.7872598878,1264121.085675498,1428794894.9885247,1347337911.7395492,1824153137.6031702,0.08955218323549906,-0.06936865049497791,0.19575612826862904,0.03403196547479754,0.18817138671875,-0.185791015625,0.37286376953125,0.06512451171875,2.000841750841751,2.000841750841751,2.000841750841751,2.000841750841751,1.4145111349302808,1.4145111349302808,1.4145111349302808,1.4145111349302808,0.0010141821258482847,0.0012914201357831208,0.0008705680889565854,0.0011077464370900598,0.001359870847140683,0.001876865416898449,0.0011093792854736028,0.0015296669252414675,-0.07272514985056398,-0.13598350756936897,0.26571152421493005,-0.8412225871363368,-0.2964763257484105,1.6308898028237757,2.000841750841751,2.000841750841751,2.000841750841751,1.4145111349302808,1.4145111349302808,1.4145111349302808,0.004932381929251239,0.0007390676885884648,0.003534368278241063,0.01120517536678798,0.0008917751129440027,0.0071849783103655985,-1.2566371681415929,-1.786346396965866,-1.04551201011378,-0.8520859671302149,-0.8912768647281921,-0.5398230088495575,-1.0025284450063212,-1.8027812895069533,-1,-2,-1,-1,-1,-1,-1,0,2.0025316455696203,2.0025316455696203,2.0025316455696203,2.0025316455696203,2.0025316455696203,2.0025316455696203,2.0025316455696203,2.0025316455696203,1.4151083511765523,1.4151083511765523,1.4151083511765523,1.4151083511765523,1.4151083511765523,1.4151083511765523,1.4151083511765523,1.4151083511765523,941.2261418258458,262.40626120932046,733.8425259164434,932.3476684653534,346.16032781395876,467.0502844158437,203.68985181447692,218.31273594021215,85306.89516810446,15536.663238639738,61215.67767908254,84235.66588436718,22478.218361364878,33512.771779198454,11083.698004653023,12157.126179565632
b,-1.501714790218158,-2.8727902370515923,2.5642781624722892,-2.37890625,-5.50048828125,4.876953125,2.0008064516129034,2.0008064516129034,2.0008064516129034,1.414498657338671,1.414498657338671,1.414498657338671,0.7630499258553299,0.9572827804678093,0.33598030097478443,9.439439212573935,12.772108051391584,3.161991327883832,116.95808141878275,121.17450120918984,12.732743853284965,144,128,16,2.0008064516129034,2.0008064516129034,2.0008064516129034,1.414498657338671,1.414498657338671,1.414498657338671,1000231.370388006,968887.3335687008,1200576.7915793157,1354179442.0483117,1297896194.9356253,1727410332.7455916,0.09739752096401401,-0.05460085517117594,0.20706788093416212,0.016435136529814088,0.18890380859375,-0.10760498046875,0.4033203125,0.00177001953125,2.0008064516129034,2.0008064516129034,2.0008064516129034,2.0008064516129034,1.414498657338671,1.414498657338671,1.414498657338671,1.414498657338671,0.0009596865888095964,0.0012108441765838335,0.0008184924663382565,0.0010902830408481621,0.0012814888223747138,0.0017471355392974814,0.0010364821724424022,0.0015191287994502074,-0.06748184875660997,-0.13972867939326145,0.21798052489134448,-0.8231520097233892,-0.30261918278365685,1.5333485253998467,2.0008064516129034,2.0008064516129034,2.0008064516129034,1.414498657338671,1.414498657338671,1.414498657338671,0.004702653453192347,0.0007127773647855583,0.0035577438414790665,0.010665950310237307,0.0008619474468816544,0.007352614936721291,-1.3818181818181818,-2.004848484848485,-1.1987878787878787,-0.8884848484848484,-0.8715151515151515,-0.3466666666666667,-0.9466666666666667,-1.7806060606060605,-1,-2,-1,-1,-1,-1,-1,-1,2.0024271844660193,2.0024271844660193,2.0024271844660193,2.0024271844660193,2.0024271844660193,2.0024271844660193,2.0024271844660193,2.0024271844660193,1.4150714414707193,1.4150714414707193,1.4150714414707193,1.4150714414707193,1.4150714414707193,1.4150714414707193,1.4150714414707193,1.4150714414707193,905.1520069164297,253.58526305519567,706.3989115502741,894.7573591335,331.7062000963376,445.2863272507558,194.88588491724525,209.15531500194865,82119.5714741286,15053.933657796135,59004.43797901717,80864.58366206998,21535.556647464695,31891.170761105626,10597.21706289267,11644.205369253392
b,-1.5995836660375533,-3.0662085178329463,2.2187592627879402,-2.50390625,-5.87451171875,4.37646484375,2.0007745933384973,2.0007745933384973,2.0007745933384973,1.414487395963109,1.414487395963109,1.414487395963109,0.7453023262545678,0.9480647429224353,0.3485444455575919,9.271530637019035,12.778860530192032,3.3655214041560564,121.41973964382501,114.07203348819202,7.0934717382888115,144,128,16,2.0007745933384973,2.0007745933384973,2.0007745933384973,1.414487395963109,1.414487395963109,1.414487395963109,978131.846720127,989366.3210367293,1162807.4160255971,1332205843.6535232,1352646455.135091,1677716307.5380018,0.054172919048526426,-0.05630952759025358,0.2166810428916231,-0.004939050855352303,0.14202880859375,-0.1553955078125,0.373291015625,-0.0751953125,2.0007745933384973,2.0007745933384973,2.0007745933384973,2.0007745933384973,1.414487395963109,1.414487395963109,1.414487395963109,1.414487395963109,0.0009865567212543353,0.0011659804741811087,0.0007735996295033143,0.0010816973343985023,0.0013475272251209436,0.0016838232644173481,0.0009743832421267445,0.0015235234668059894,0.007686959322997584,-0.10252088458936902,0.24291312709839616,-0.31841560857601253,-0.17276332404628567,1.4515347954797817,2.0007745933384973,2.0007745933384973,2.0007745933384973,1.414487395963109,1.414487395963109,1.414487395963109,0.004206931037175258,0.0006409338109682687,0.0033306382013192685,0.00931812772651542,0.0007582150115385575,0.006824613810588712,-1.3119906868451687,-1.8719441210710128,-0.880093131548312,-0.9185098952270081,-0.9231664726426076,-0.29336437718277064,-0.9033760186263097,-1.7136204889406286,-1,-2,-1,-1,-1,-1,0,-1,2.0023310023310024,2.0023310023310024,2.0023310023310024,2.0023310023310024,2.0023310023310024,2.0023310023310024,2.0023310023310024,2.0023310023310024,1.4150374561583174,1.4150374561583174,1.4150374561583174,1.4150374561583174,1.4150374561583174,1.4150374561583174,1.4150374561583174,1.4150374561583174,867.9700850083079,242.4114662606768,673.014528581849,860.0094113629527,319.13758689521313,427.0178376688614,186.86985356476353,200.37922580729318,78705.31552317143,14368.185707055687,56065.66452558785,77744.31829959413,20731.70388541569,30567.44062731672,10155.860223129524,11146.400588493218
b,-1.7694477473570231,-2.7178693109048995,2.0657584223057937,-2.75390625,-5.563232421875,4.25146484375,2.0007454342154305,2.0007454342154305,2.0007454342154305,1.4144770886145277,1.4144770886145277,1.4144770886145277,0.738245645398932,0.863306440510345,0.3468354498334242,9.272468409460867,11.423893481523065,3.386560281536929,125.32027757078987,117.33073304769002,-1.2824375931445604,160,128,16,2.0007454342154305,2.0007454342154305,2.0007454342154305,1.4144770886145277,1.4144770886145277,1.4144770886145277,935638.7966806798,947351.6351691062,1132910.1158421652,1271759916.7570858,1293031532.4741468,1641300531.17983,0.06495782479799274,-0.08376802310858326,0.1820802418556725,-0.008175026997368667,0.149658203125,-0.2171630859375,0.325958251953125,-0.06024169921875,2.0007454342154305,2.0007454342154305,2.0007454342154305,2.0007454342154305,1.4144770886145277,1.4144770886145277,1.4144770886145277,1.4144770886145277,0.0009336415649597542,0.0011679915544118736,0.0007887302172651192,0.0010460963540101528,0.0012681415757586942,0.0017094134120806037,0.0010127419735002268,0.0014757849884168691,0.07152281189326029,-0.10350986283210965,0.19685815615472324,0.19399363726085359,-0.19034879764312962,1.3842970895582596,2.0007454342154305,2.0007454342154305,2.0007454342154305,1.4144770886145277,1.4144770886145277,1.4144770886145277,0.0038062391138555646,0.0006179230347659757,0.0033606171579232806,0.00825890101435415,0.0007314309790872286,0.006995512833915932,-1.2255892255892256,-1.7699214365881033,-0.8395061728395061,-0.8507295173961841,-0.813692480359147,-0.3288439955106622,-0.8821548821548821,-1.7384960718294051,-1,-1,-1,-1,-1,-1,0,-1,2.002247191011236,2.002247191011236,2.002247191011236,2.002247191011236,2.002247191011236,2.002247191011236,2.002247191011236,2.002247191011236,1.4150078413249998,1.4150078413249998,1.4150078413249998,1.4150078413249998,1.4150078413249998,1.4150078413249998,1.4150078413249998,1.4150078413249998,835.1603481344158,232.86814347068832,648.2141363117819,827.8571189658666,306.5971530251429,412.14024083861534,180.02068030480726,193.378017041096,75680.8016251745,13786.033910142294,53982.1981804056,74799.68202638815,19893.75316595057,29513.401232535223,9781.131539331316,10760.572337825874
b,-1.5151139264474864,-2.4509016985525136,2.318435992201526,-2.62890625,-5.125,4.626953125,2.0007183908045976,2.0007183908045976,2.0007183908045976,1.4144675290739612,1.4144675290739612,1.4144675290739612,0.6813660320899796,0.7969189601090888,0.31625138549773113,8.435594698786872,10.395066674825499,3.0314586516874598,123.18767953321364,116.1544434470377,0.9117594254937164,160,128,16,2.0007183908045976,2.0007183908045976,2.0007183908045976,1.4144675290739612,1.4144675290739612,1.4144675290739612,904729.4295286052,914683.6411846257,1088342.9428149075,1231118969.691913,1249212388.2853985,1575056318.1703343,0.03568564505722621,-0.09410812405324281,0.131553400611535,-0.01784827953181104,0.0799560546875,-0.248291015625,0.24810791015625,-0.092041015625,2.0007183908045976,2.0007183908045976,2.0007183908045976,2.0007183908045976,1.4144675290739612,1.4144675290739612,1.4144675290739612,1.4144675290739612,0.0009415585927020131,0.001142608140331693,0.0008253643189477976,0.0010229122552709617,0.0012983891211206479,0.001680627574697365,0.0010892711134051498,0.0014500831595707275,0.09337266560752311,-0.12850284363260206,0.2119060187409122,0.4155097501140894,-0.26815151997499403,1.4414092961139693,2.0007183908045976,2.0007183908045976,2.0007183908045976,1.4144675290739612,1.4144675290739612,1.4144675290739612,0.003590489205924902,0.0006225946584347671,0.0031894035176197066,0.007735348780068301,0.0007479666834652877,0.006605226151187541,-1.1794594594594594,-1.7632432432432432,-0.76,-0.8562162162162162,-0.8227027027027027,-0.36864864864864866,-0.9178378378378378,-1.7059459459459458,-1,-1,-1,-1,-1,-1,0,-1,2.002164502164502,2.002164502164502,2.002164502164502,2.002164502164502,2.002164502164502,2.002164502164502,2.002164502164502,2.002164502164502,1.414978622511486,1.414978622511486,1.414978622511486,1.414978622511486,1.414978622511486,1.414978622511486,1.414978622511486,1.414978622511486,803.6444298405415,224.26891658757205,623.163520950576,797.5798523687653,295.4328923427642,397.48395484764933,173.65601654371696,186.05067943582532,72800.18720829114,13276.166518106487,51862.08120719798,72068.60968200308,19171.630023667727,28475.632579459423,9439.891958485103,10348.774522749878
b,-1.4264987521701389,-2.39629635281033,2.3045949300130206,-2.50390625,-4.68798828125,4.813720703125,2.000694685654741,2.000694685654741,2.000694685654741,1.4144591495178436,1.4144591495178436,1.4144591495178436,0.6489498482632922,0.7638232854312988,0.3067624677931195,7.993660074618468,9.9339359246766,2.9435209175787174,121.012109375,113.50540364583334,0.9139539930555556,144.0625,128,16,2.000694685654741,2.000694685654741,2.000694685654741,1.4144591495178436,1.4144591495178436,1.4144591495178436,877871.5658606408,888171.3354116929,1052458.061416397,1195929207.6700983,1214674272.4014218,1523130896.8085608,0.039058452182345924,-0.08481703864203559,0.16190062628851998,-0.0362441168891059,0.0799560546875,-0.216949462890625,0.325439453125,-0.122528076171875,2.000694685654741,2.000694685654741,2.000694685654741,2.000694685654741,1.4144591495178436,1.4144591495178436,1.4144591495178436,1.4144591495178436,0.0009058012321749491,0.00109020029707983,0.000759856036802536,0.0010166637394934533,0.0012469279852846092,0.0015963908282633592,0.0009865200587370379,0.0014544560691052905,0.11377790872514965,-0.10752895745575536,0.1588194575153821,0.7483405770975476,-0.1967609807406253,1.3231586259913546,2.000694685654741,2.000694685654741,2.000694685654741,1.4144591495178436,1.4144591495178436,1.4144591495178436,0.0034028316676765207,0.0005800490187497301,0.0032549907062076433,0.007282013007185719,0.0006882566630533654,0.006863260762468222,-1.1671891327063741,-1.6248693834900731,-0.5276907001044933,-0.7847439916405433,-0.5433646812957158,-0.5882967607105538,-0.9237199582027168,-1.6677115987460815,-1,-1,0,-1,-1,-1,0,-1,2.002092050209205,2.002092050209205,2.002092050209205,2.002092050209205,2.002092050209205,2.002092050209205,2.002092050209205,2.002092050209205,1.4149530204954528,1.4149530204954528,1.4149530204954528,1.4149530204954528,1.4149530204954528,1.4149530204954528,1.4149530204954528,1.4149530204954528,776.5914054069813,215.70904584033548,598.8011267127805,769.6601873396128,282.971445417916,386.71679819947207,167.8969608441172,179.5773470707343,70344.05813754766,12748.579296943022,49737.13797687173,69508.1946715888,18307.43342504416,27764.809353234665,9127.694425701746,9984.033918017885
c,-1.4053623503765567,-2.3770205081411984,2.571083461744783,-2.37841796875,-4.875,5.62646484375,2.0006734006734006,2.0006734006734006,2.0006734006734006,1.4144516254271124,1.4144516254271124,1.4144516254271124,0.6267962359785787,0.7381144925620085,0.28801068539603536,7.711450176896961,9.589571333417195,2.7342969929591687,118.59731571861326,111.79428222820599,-0.8976985863345674,144,128,16,2.0006734006734006,2.0006734006734006,2.0006734006734006,1.4144516254271124,1.4144516254271124,1.4144516254271124,854199.8298962021,863267.6938825882,1022949.3502471212,1165145578.398568,1181666350.8216944,1481743594.1115706,0.055107740712302254,-0.05245773433555621,0.1294564703264368,-0.015477661009550656,0.1568603515625,-0.1710205078125,0.24810791015625,-0.092041015625,2.0006734006734006,2.0006734006734006,2.0006734006734006,2.0006734006734006,1.4144516254271124,1.4144516254271124,1.4144516254271124,1.4144516254271124,0.0008565371518017189,0.0010080611857103809,0.0007763286452577413,0.0009555079751787238,0.0011693983873092533,0.0014530595327519374,0.0010257189179760059,0.0013529444713036337,0.06088970270962136,-0.0973621828422221,0.15630549985553746,0.20559768818772106,-0.17276332404628567,1.328912853291431,2.0006734006734006,2.0006734006734006,2.0006734006734006,1.4144516254271124,1.4144516254271124,1.4144516254271124,0.0034746046441047752,0.0005521346422771502,0.003163328429616541,0.007565565779803285,0.0006511697433992851,0.006675645456392636,-1.154002026342452,-1.7315096251266464,-0.6646403242147924,-0.8814589665653495,-0.6585612968591692,-0.5866261398176292,-0.8956433637284701,-1.6930091185410334,-1,-2,0,-1,-1,-1,0,-1,2.002028397565923,2.002028397565923,2.002028397565923,2.002028397565923,2.002028397565923,2.002028397565923,2.002028397565923,2.002028397565923,1.4149305274697845,1.4149305274697845,1.4149305274697845,1.4149305274697845,1.4149305274697845,1.4149305274697845,1.4149305274697845,1.4149305274697845,752.7903031543083,209.96372121670413,582.6602784385514,747.9976688630254,275.4207176903896,374.9618713774413,162.6232746498434,174.29541176888765,68182.20977136161,12425.047733913774,48453.62423289932,67604.04934427862,17841.629850189667,26920.835125680715,8837.90482100759,9693.642310605836
c,-1.3241886504708904,-2.5096785115480267,2.1404318215406883,-1.94140625,-5.12548828125,4.6259765625,2.000652528548124,2.000652528548124,2.000652528548124,1.41444424723922,1.41444424723922,1.41444424723922,0.5989243692494944,0.7308573272499999,0.30681284931428293,7.334210362630383,9.56388159355252,3.00622933737871,114.37885273972603,114.01797945205479,-6.554284898891063,135.9375,128,0,2.000652528548124,2.000652528548124,2.000652528548124,1.41444424723922,1.41444424723922,1.41444424723922,833186.829756752,833653.4269164896,999501.7884998613,1138974266.8217564,1139824803.1566424,1451784485.300691,0.08054771348688233,-0.04455747560823345,0.13962562396801614,-0.021930731905883072,0.204132080078125,-0.12359619140625,0.3099365234375,-0.092071533203125,2.000652528548124,2.000652528548124,2.000652528548124,2.000652528548124,1.41444424723922,1.41444424723922,1.41444424723922,1.41444424723922,0.0007976373260663252,0.0009655302509585838,0.0007400720212882923,0.000934894973479026,0.0010746441414273525,0.001386368122137462,0.0009724994505700997,0.0013280297882401382,0.04079215091551267,-0.12559739763820293,0.14671978940500427,-0.020857197717611242,-0.28856335694676066,1.2750023767112706,2.000652528548124,2.000652528548124,2.000652528548124,1.41444424723922,1.41444424723922,1.41444424723922,0.003433342595579546,0.0005626655426935578,0.003094987426092364,0.007524544916226068,0.0006748249692012534,0.006552432696798325,-1.2747791952894996,-1.76153091265947,-0.9136408243375859,-0.9499509322865555,-0.6751717369970559,-0.5721295387634936,-0.9018645731108931,-1.8047105004906772,-1,-1,-1,-1,-1,-1,-1,-1,2.00196463654224,2.00196463654224,2.00196463654224,2.00196463654224,2.00196463654224,2.00196463654224,2.00196463654224,2.00196463654224,1.41490799578709,1.41490799578709,1.41490799578709,1.41490799578709,1.41490799578709,1.41490799578709,1.41490799578709,1.41490799578709,731.2485884597689,203.5987149610068,567.9804159061267,725.7074550296556,266.9293999062836,363.04870093377104,157.56212274023292,169.54998172318298,66294.59406607154,12052.896801602566,47333.5644125448,65625.63328408198,17294.975115643058,26062.210256725208,8563.681215244585,9443.255154994178
c,-1.0934764943172803,-2.545714963999524,2.2992903728479055,-1.62890625,-4.87646484375,5.375,2.0006349206349205,2.0006349206349205,2.0006349206349205,1.4144380229034146,1.4144380229034146,1.4144380229034146,0.5597968871923155,0.7153132468576677,0.2883915829046598,6.763789865397545,9.378739893402077,2.7933557046060202,107.51430101555061,106.6301967629324,-14.472826086956522,128,112,0,2.0006349206349205,2.0006349206349205,2.0006349206349205,1.4144380229034146,1.4144380229034146,1.4144380229034146,819387.2540233664,820507.7630002323,983841.3068526547,1124091696.4289463,1126141751.6233077,1434551700.1294284,0.06685885154266502,-0.01575551567210806,0.11684261553251944,-0.0032035224742641226,0.188720703125,-0.0145263671875,0.27825927734375,-0.06024169921875,2.0006349206349205,2.0006349206349205,2.0006349206349205,2.0006349206349205,1.4144380229034146,1.4144380229034146,1.4144380229034146,1.4144380229034146,0.000792976764188335,0.0009000905435893696,0.0007469246036573734,0.000884487600234255,0.0010760441319157415,0.001274083035403501,0.0009935395385201947,0.0012447203775480952,0.0174898703458504,-0.14962379719767352,0.12319254481071615,-0.24517155770453697,-0.3554922618850206,1.2095013507291736,2.0006349206349205,2.0006349206349205,2.0006349206349205,1.4144380229034146,1.4144380229034146,1.4144380229034146,0.0034166766641320805,0.0005710884423054433,0.0030830797859144046,0.007544340993437241,0.0006946306821595867,0.006578534442534413,-1.2041984732824427,-1.6784351145038168,-0.9484732824427481,-1.0095419847328244,-0.6927480916030534,-0.5887404580152672,-0.9045801526717557,-1.8043893129770991,-1,-1,-0.5,-1,-1,-1,-1,-1,2.0019102196752625,2.0019102196752625,2.0019102196752625,2.0019102196752625,2.0019102196752625,2.0019102196752625,2.0019102196752625,2.0019102196752625,1.414888765831174,1.414888765831174,1.414888765831174,1.414888765831174,1.414888765831174,1.414888765831174,1.414888765831174,1.414888765831174,709.8695802113277,197.38423906787418,552.775509740509,706.6410348871605,259.70289413597095,353.19012281256835,153.22457980608604,164.8629421408853,64321.84829603626,11673.570841990571,46080.673630563484,63932.08950979575,16830.20787622199,25358.98268841142,8328.338074077714,9182.293187635185
c,-0.721948445449815,-2.248784340791705,2.093798632390919,-1.37939453125,-4.62548828125,4.6259765625,2.000616903146206,2.000616903146206,2.000616903146206,1.414431653755743,1.414431653755743,1.414431653755743,0.5092153119085733,0.6621770206757466,0.2930130370622108,6.018906384582259,8.54307967799694,2.880701384991371,101.36985430157262,99.46943416589578,-16.811517113783534,112,112,-0.0625,2.000616903146206,2.000616903146206,2.000616903146206,1.414431653755743,1.414431653755743,1.414431653755743,803740.1292673226,806096.4855647485,959199.5243492974,1106122396.9549396,1110448324.550328,1400213484.9410207,0.060870175004336266,-0.049249442609562905,0.15611612918087997,-0.01439326801235353,0.173095703125,-0.1553955078125,0.32574462890625,-0.0911865234375,2.000616903146206,2.000616903146206,2.000616903146206,2.000616903146206,1.414431653755743,1.414431653755743,1.414431653755743,1.414431653755743,0.0007777260810062263,0.0009191982410237842,0.0006812393454307188,0.0008739826019437343,0.0010586470716705582,0.0013229026782976515,0.000887255322996907,0.0012368566433159384,-0.048496788062401215,-0.1353966936970545,0.10954524937369564,-0.7688449963149965,-0.33408340479938353,1.1841858193353114,2.000616903146206,2.000616903146206,2.000616903146206,1.414431653755743,1.414431653755743,1.414431653755743,0.003534691651436253,0.0005412421789468901,0.0030364789679140788,0.007969866163115992,0.0006528867094164405,0.006508426719438124,-1.196478220574606,-1.803521779425394,-1.1417979610750695,-1.0741427247451343,-0.6997219647822057,-0.607970342910102,-0.8433734939759037,-1.6987951807228916,-1,-1,-1,-1,-1,-1,-1,-1,2.0018552875695734,2.0018552875695734,2.0018552875695734,2.0018552875695734,2.0018552875695734,2.0018552875695734,2.0018552875695734,2.0018552875695734,1.4148693535339485,1.4148693535339485,1.4148693535339485,1.4148693535339485,1.4148693535339485,1.4148693535339485,1.4148693535339485,1.4148693535339485,689.3786348102942,192.5822896440893,539.5606434863008,687.4069342431187,252.30949405552238,343.2518328031927,148.47345121137496,159.4901208559489,62462.24283708529,11406.759263114398,45053.39264808432,62224.15771911076,16352.541947549595,24650.418754567712,8063.7840072500685,8871.264561099208
c,-0.40145528627851995,-1.993939214481387,1.9883881119127138,-1.12890625,-4.37548828125,3.75,2.0006006006006007,2.0006006006006007,2.0006006006006007,1.4144258908124527,1.4144258908124527,1.4144258908124527,0.4678001818309107,0.6180564838309514,0.29181235024873253,5.423405276047118,7.862532132659,2.890656156603699,96.81278144701291,91.3455981687181,-20.86426748724107,112,112,-0.0625,2.0006006006006007,2.0006006006006007,2.0006006006006007,1.4144258908124527,1.4144258908124527,1.4144258908124527,788024.7683226452,794667.6433024857,939380.2189579285,1087037938.3561318,1099273058.8662271,1373978990.3071,0.06806336090536813,-0.01970513881201216,0.15690680131365392,-0.03847428307236941,0.18817138671875,-0.04571533203125,0.2938232421875,-0.12261962890625,2.0006006006006007,2.0006006006006007,2.0006006006006007,2.0006006006006007,1.4144258908124527,1.4144258908124527,1.4144258908124527,1.4144258908124527,0.0007487339239707785,0.0008565225596665496,0.0006623964896652802,0.0008819844948767922,0.0010153791125998319,0.001214814459383085,0.0008623473648267843,0.0012632020197721402,-0.05940658604196882,-0.15556083338389531,0.10380250492439864,-0.7992825896744024,-0.3981279516708764,1.1720913862397242,2.0006006006006007,2.0006006006006007,2.0006006006006007,1.4144258908124527,1.4144258908124527,1.4144258908124527,0.0034767905926873905,0.0005458542878859958,0.002973127424592858,0.0078661626608421,0.000666234593432818,0.006384735465537758,-1.30956678700361,-1.7319494584837545,-1.3113718411552346,-1.0992779783393503,-0.7075812274368231,-0.6425992779783394,-0.8465703971119134,-1.7906137184115523,-1,-1,0,-1,-1,-1,-1,-1,2.001806684733514,2.001806684733514,2.001806684733514,2.001806684733514,2.001806684733514,2.001806684733514,2.001806684733514,2.001806684733514,1.4148521776968483,1.4148521776968483,1.4148521776968483,1.4148521776968483,1.4148521776968483,1.4148521776968483,1.4148521776968483,1.4148521776968483,673.1380694204478,187.0684917465089,527.7235887536802,669.833837196792,245.7778576290475,334.621872147114,144.61072617458277,155.86567576097406,61045.28475601893,11070.84523960044,44128.78088792345,60646.07473697123,15930.77580663746,24039.145146358544,7854.416542117116,8679.883626311534
c,-0.1565090150391769,-2.0029824630656856,1.9719491432337435,-0.87890625,-4.125244140625,2.813720703125,2.0005859947260474,2.0005859947260474,2.0005859947260474,1.4144207276217524,1.4144207276217524,1.4144207276217524,0.43628227576687606,0.6039468002359597,0.2857243748296477,4.9824689250659775,7.686926912938754,2.833680579619573,93.17422744581137,92.83150263620387,-20.170218219097833,96,112,-0.0625,2.0005859947260474,2.0005859947260474,2.0005859947260474,1.4144207276217524,1.4144207276217524,1.4144207276217524,773184.5349625648,773591.2890525348,915630.210015385,1068559518.6327697,1069309109.5165739,1338796771.9840906,0.10375669062591535,0.009619884345708846,0.12119856813740297,-0.07458864378524092,0.212188720703125,0.04766845703125,0.232086181640625,-0.169891357421875,2.0005859947260474,2.0005859947260474,2.0005859947260474,2.0005859947260474,1.4144207276217524,1.4144207276217524,1.4144207276217524,1.4144207276217524,0.0006905109276059373,0.000799592283119554,0.0006846326928596035,0.0009074009487072763,0.0009189994399579961,0.0011174959667790078,0.0009085831619780437,0.0013227775359933578,-0.10817871693443327,-0.14794399972836708,0.14685501393597655,-1.0510500599449555,-0.3413578668640201,1.3388476856725393,2.0005859947260474,2.0005859947260474,2.0005859947260474,1.4144207276217524,1.4144207276217524,1.4144207276217524,0.0035497810436016003,0.0005255710652365488,0.0027792675176871256,0.008153735015849983,0.0006386502733134541,0.005883850659519713,-1.0977112676056338,-1.8512323943661972,-1.289612676056338,-1.095950704225352,-0.6971830985915493,-0.613556338028169,-0.8265845070422535,-1.658450704225352,-1,-1,0,-1,-1,-1,-0.5,0,2.001762114537445,2.001762114537445,2.001762114537445,2.001762114537445,2.001762114537445,2.001762114537445,2.001762114537445,2.001762114537445,1.4148364267778255,1.4148364267778255,1.4148364267778255,1.4148364267778255,1.4148364267778255,1.4148364267778255,1.4148364267778255,1.4148364267778255,653.3216964028651,183.2446569420425,514.4495594191302,653.294759189831,239.64642459422464,326.10535047674443,140.94106494781047,151.2652378479796,59151.01735207045,10860.11783656596,43011.36016383664,59147.76555413813,15531.761593801675,23420.887231654953,7653.19610930956,8409.657137274595
c,-0.2103173451343241,-1.9330701629036868,2.0190937645130753,-0.87939453125,-4.00048828125,3.126953125,2.0005717552887363,2.0005717552887363,2.0005717552887363,1.414415693948825,1.414415693948825,1.414415693948825,0.42995664482084706,0.5824428598358491,0.2759849014743047,4.926602630776098,7.384465769204627,2.7278997880019835,94.57261003143755,88.83743569591311,-14.403918976850528,96,96,-0.0625,2.0005717552887363,2.0005717552887363,2.0005717552887363,1.414415693948825,1.414415693948825,1.414415693948825,752791.991375856,759442.1802071263,885944.568677607,1039635979.5031496,1051899544.4155812,1291784435.592891,0.10090789402440876,-0.0018755533109906402,0.1262149641806141,-0.06597064842187053,0.21942138671875,0.01727294921875,0.2474365234375,-0.15399169921875,2.0005717552887363,2.0005717552887363,2.0005717552887363,2.0005717552887363,1.414415693948825,1.414415693948825,1.414415693948825,1.414415693948825,0.0006768072300966686,0.0007938664949154088,0.0006626669648865186,0.0008743119800410402,0.0009021275933826686,0.001115949678582495,0.0008770851174479926,0.001269218965965627,-0.1182450739714493,-0.1415285431301701,0.14570800949223622,-1.1789181320669964,-0.3266997692510848,1.328912853291431,2.0005717552887363,2.0005717552887363,2.0005717552887363,1.414415693948825,1.414415693948825,1.414415693948825,0.0034975196012972496,0.0005070880210878963,0.002714898117420742,0.008059872845078687,0.000613892672051551,0.005749799436669645,-1.0317869415807561,-1.77233676975945,-1.2061855670103092,-1.0532646048109966,-0.8496563573883161,-0.6245704467353952,-0.9003436426116839,-1.761168384879725,-1,-1,0,-1,-1,-1,-1,-1,2.001719690455718,2.001719690455718,2.001719690455718,2.001719690455718,2.001719690455718,2.001719690455718,2.001719690455718,2.001719690455718,1.4148214341236558,1.4148214341236558,1.4148214341236558,1.4148214341236558,1.4148214341236558,1.4148214341236558,1.4148214341236558,1.4148214341236558,636.6423850124185,178.3380516521616,501.028853931671,636.962833980098,235.05783685383057,318.37451509867213,137.9516722586379,148.21036540810258,57611.837246710624,10559.491792772695,41860.20105000568,57650.50511381706,15259.863201399881,22868.379399504083,7498.141282636949,8250.667727212194
c,-0.16347953666352333,-1.9511864729585777,2.0046381943716822,-0.87890625,-3.87646484375,3.50244140625,2.000558971492454,2.000558971492454,2.000558971492454,1.4144111748329953,1.4144111748329953,1.4144111748329953,0.41671611737000824,0.5711567322451319,0.27065633633311337,4.761103583500985,7.248714025400314,2.678005705095451,92.77062377759151,93.53887259010897,-5.007334450963956,96,112,0,2.000558971492454,2.000558971492454,2.000558971492454,1.4144111748329953,1.4144111748329953,1.4144111748329953,738010.8687092675,737141.2449044089,854364.3201729727,1020166151.446631,1018563670.0858929,1240065724.201741,0.09547278081015123,-0.007737446710629715,0.12435649606428123,-0.05289070617556405,0.20452880859375,0.00067138671875,0.23187255859375,-0.12261962890625,2.000558971492454,2.000558971492454,2.000558971492454,2.000558971492454,1.4144111748329953,1.4144111748329953,1.4144111748329953,1.4144111748329953,0.0006674243794125961,0.0007830138597230163,0.0006497922077005259,0.0008385453460464773,0.0008921885689296361,0.0011039426151335102,0.0008609010379851943,0.001209546688284688,-0.10556936383164221,-0.13362631843314265,0.1395805320873839,-1.039273318752527,-0.2981933199149867,1.3093666794501893,2.000558971492454,2.000558971492454,2.000558971492454,1.4144111748329953,1.4144111748329953,1.4144111748329953,0.0033796357686003255,0.0004889260216109809,0.002670559793105514,0.007757952149856842,0.0005891756215609693,0.005667484064311821,-0.9479429051217464,-1.7321578505457598,-1.18303946263644,-1.1066330814441645,-0.8421494542401343,-0.635600335852225,-0.9118387909319899,-1.7187237615449202,0,-1,0,-1,-1,-1,-1,-1,2.0016806722689076,2.0016806722689076,2.0016806722689076,2.0016806722689076,2.0016806722689076,2.0016806722689076,2.0016806722689076,2.0016806722689076,1.414807644971184,1.414807644971184,1.414807644971184,1.414807644971184,1.414807644971184,1.414807644971184,1.414807644971184,1.414807644971184,621.006246313059,174.04954623965216,489.3972336542827,623.319762219028,229.67946232393817,311.26738363595354,134.88871839430544,221.3537279507394,56160.61803836632,10300.724717847595,40880.78883617231,56439.75444635968,14909.627877897337,22360.529018384335,7332.826763223735,14193.39778868688
c,-0.006019246441493719,-2.040961890061783,2.2099988052976514,-0.62890625,-4.126220703125,4.25048828125,2.0005462988254576,2.0005462988254576,2.0005462988254576,1.414406694987498,1.414406694987498,1.414406694987498,0.39548544356259463,0.5666339006863765,0.2530495256466352,4.474523407511943,7.227301714151608,2.4670624891789767,89.54425518842163,90.80627048061169,-7.61228495357728,96,96,0,2.0005462988254576,2.0005462988254576,2.0005462988254576,1.414406694987498,1.414406694987498,1.414406694987498,724867.2145148048,723466.7744348982,838190.5288128725,1003654084.3040385,1001069510.4767681,1218137871.7714953,0.06913654821157325,-0.011733400437559735,0.1371827805257117,-0.024247807534518363,0.1732177734375,-0.060546875,0.2938232421875,-0.092041015625,2.0005462988254576,2.0005462988254576,2.0005462988254576,2.0005462988254576,1.414406694987498,1.414406694987498,1.414406694987498,1.414406694987498,0.0006799427189371686,0.0007698836916776836,0.000622119253695243,0.0007855120689821371,0.0009215860312625989,0.0010876093692331014,0.0008185985476237258,0.0011171459862573056,-0.137277249902516,-0.10227805391806251,0.16196406315606202,-1.325139662008113,-0.19637112431106124,1.3938874311003824,2.0005462988254576,2.0005462988254576,2.0005462988254576,1.414406694987498,1.414406694987498,1.414406694987498,0.0034007878950762923,0.00045196468001215494,0.0025521004619534523,0.00788276975277492,0.0005346202968320594,0.00537571787366431,-1.0172272354388843,-1.7867104183757179,-1.2305168170631666,-1.1189499589827727,-0.8539786710418376,-0.6513535684987695,-0.911402789171452,-1.716160787530763,-1,-1,0,-1,-1,-1,-1,-1,2.0016420361247946,2.0016420361247946,2.0016420361247946,2.0016420361247946,2.0016420361247946,2.0016420361247946,2.0016420361247946,2.0016420361247946,1.4147939907014004,1.4147939907014004,1.4147939907014004,1.4147939907014004,1.4147939907014004,1.4147939907014004,1.4147939907014004,1.4147939907014004,607.745741259378,170.3892118954672,478.74630924390374,609.1956403836372,224.49702629230683,304.26792507159166,131.7919465518201,216.25724259700826,54991.69855930815,10090.763495838082,40007.53744939712,55166.6930157427,14575.228054610836,21861.30746545815,7164.508438851089,13866.34868386201
c,0.128416793427387,-2.0371630480659935,2.1368082051099893,-0.37939453125,-4.12646484375,3.62646484375,2.0005350454788657,2.0005350454788657,2.0005350454788657,1.4144027168663336,1.4144027168663336,1.4144027168663336,0.3776638636262522,0.5546189597580774,0.2518077508873566,4.237005854777512,7.072583838660441,2.467993133328967,89.83061981813319,89.59900708745654,-10.832308103771062,96,96,0,2.0005350454788657,2.0005350454788657,2.0005350454788657,1.4144027168663336,1.4144027168663336,1.4144027168663336,709634.0884284504,709885.9333087673,824800.0170404973,982421324.8415675,982886226.248026,1200558619.2372441,0.09093524925719611,-0.009575206412769122,0.1414734686591084,-0.02179261967918394,0.204345703125,-0.06060791015625,0.294677734375,-0.0916748046875,2.0005350454788657,2.0005350454788657,2.0005350454788657,2.0005350454788657,1.4144027168663336,1.4144027168663336,1.4144027168663336,1.4144027168663336,0.0006434860074780135,0.0007515945810543947,0.0006051081242539245,0.0007665283182985676,0.0008622581313885018,0.0010606286201249658,0.0007943815219866309,0.001088820009892401,-0.13495364654961106,-0.11655610863678675,0.16343896460526863,-1.325139662008113,-0.25971839365651783,1.3971103958939037,2.0005350454788657,2.0005350454788657,2.0005350454788657,1.4144027168663336,1.4144027168663336,1.4144027168663336,0.003323704073062277,0.0004540907938576689,0.002495853856574283,0.007698656703586978,0.00054172068378122,0.005254652785546199,-1.1236947791164658,-1.7598393574297189,-1.3333333333333333,-1.0971887550200803,-0.8506024096385543,-0.629718875502008,-0.8963855421686747,-1.7036144578313253,-1,-1,0,-1,-1,-1,-1,-1,2.0016077170418005,2.0016077170418005,2.0016077170418005,2.0016077170418005,2.0016077170418005,2.0016077170418005,2.0016077170418005,2.0016077170418005,1.4147818619991566,1.4147818619991566,1.4147818619991566,1.4147818619991566,1.4147818619991566,1.4147818619991566,1.4147818619991566,1.4147818619991566,596.5550974179371,166.67470904657893,469.98445480947794,596.184930928066,219.79015003403217,297.7312160196475,128.96741001810557,211.65862934837912,54024.472092466945,9867.7027389655,39309.824819119734,53979.77997970447,14269.236994460938,21387.28280116739,7009.651416589269,13569.726350577039
c,0.2298257632479052,-1.8610229332367767,2.1030181381333466,-0.25390625,-3.87646484375,3.50048828125,2.000523834468308,2.000523834468308,2.000523834468308,1.4143987537000688,1.4143987537000688,1.4143987537000688,0.36271190384209406,0.527251850288832,0.24834215194926168,4.043265853014185,6.657952658522177,2.439966177382013,94.78597145849699,94.38337915684734,-4.941444095312909,96,96,0,2.000523834468308,2.000523834468308,2.000523834468308,1.4143987537000688,1.4143987537000688,1.4143987537000688,689513.161057976,689939.6255319994,800616.9262362183,952152765.2275133,952938055.8806933,1162027063.341977,0.08190938745315364,-0.007518799275620254,0.13044441904376144,-0.01905688904879386,0.188720703125,-0.04498291015625,0.27911376953125,-0.0911865234375,2.000523834468308,2.000523834468308,2.000523834468308,2.000523834468308,1.4143987537000688,1.4143987537000688,1.4143987537000688,1.4143987537000688,0.0006390554878498249,0.0007335843669222088,0.0006030569999614257,0.0007474159354288151,0.0008604018014769138,0.0010341494605354802,0.0007963934936846701,0.0010602290270842847,-0.1327060927878045,-0.1192488579896055,0.12665884998938098,-1.3002989508566916,-0.22562461143723003,1.328912853291431,2.000523834468308,2.000523834468308,2.000523834468308,1.4143987537000688,1.4143987537000688,1.4143987537000688,0.0032474141615143073,0.0004467141349464141,0.00253525958795979,0.007516808042860941,0.0005337724391840476,0.0054035577572578075,-1.2059748427672956,-1.5896226415094339,-1.2476415094339623,-1.0322327044025157,-0.824685534591195,-0.6210691823899371,-0.9150943396226415,-1.6721698113207548,-1,-1,0,-1,-1,-1,-1,-1,2.001573564122738,2.001573564122738,2.001573564122738,2.001573564122738,2.001573564122738,2.001573564122738,2.001573564122738,2.001573564122738,1.4147697919176596,1.4147697919176596,1.4147697919176596,1.4147697919176596,1.4147697919176596,1.4147697919176596,1.4147697919176596,1.4147697919176596,585.0329809349097,162.14839267189302,459.02148757684336,582.6577282279858,214.9482448333596,291.3445066674867,126.32528456868813,206.95578944562445,53015.49698362198,9580.302769257654,38365.39952874022,52728.698530089685,13951.071828641574,20926.895977779728,6867.7754045838565,13263.734206972482
d,0.052975506187403695,-1.6456265598918207,1.8807458941239728,-0.503662109375,-3.62548828125,2.75048828125,2.0005137426149497,2.0005137426149497,2.0005137426149497,1.4143951861537671,1.4143951861537671,1.4143951861537671,0.3678336422550328,0.4986168405191467,0.2554359085205232,4.146362287008878,6.220441914077144,2.5498105557111153,93.45687275295326,88.77221366204417,-7.517735618900873,96,96,0,2.0005137426149497,2.0005137426149497,2.0005137426149497,1.4143951861537671,1.4143951861537671,1.4143951861537671,677619.4361251198,682503.6454436182,788162.5824642674,936367765.8958262,945377545.8529289,1145389154.6750278,0.09183577825059386,0.008986823302877825,0.14514898408910343,-0.001076908434851695,0.204345703125,-0.013580322265625,0.32568359375,-0.05230712890625,2.0005137426149497,2.0005137426149497,2.0005137426149497,2.0005137426149497,1.4143951861537671,1.4143951861537671,1.4143951861537671,1.4143951861537671,0.0006170016942110925,0.0007017410353769429,0.0005775876035365791,0.0007134950235205644,0.0008263812557246901,0.0009810726003626365,0.000756755873808073,0.0010030438362967952,-0.09328735360157596,-0.09893242163803993,0.15579453434308274,-1.08184681123313,-0.1664453654336221,1.3956406017384304,2.0005137426149497,2.0005137426149497,2.0005137426149497,1.4143951861537671,1.4143951861537671,1.4143951861537671,0.003071230752426834,0.00042250272866448476,0.0024150492231085692,0.007023419020339731,0.0004987749953114991,0.005097610299362543,-1.195216049382716,-1.560956790123457,-1.3155864197530864,-1.0501543209876543,-0.8402777777777778,-0.6257716049382716,-0.9128086419753086,-1.6520061728395061,-1,-1,0,-1,-1,-1,-1,-1,2.0015444015444017,2.0015444015444017,2.0015444015444017,2.0015444015444017,2.0015444015444017,2.0015444015444017,2.0015444015444017,2.0015444015444017,1.414759485405347,1.414759485405347,1.414759485405347,1.414759485405347,1.414759485405347,1.414759485405347,1.414759485405347,1.414759485405347,574.0670380503353,158.9854452875271,451.3080053091855,572.1204530697668,211.079822902692,285.9951863124898,123.9775837369385,202.99222988313056,52017.78021555847,9390.271675841263,37742.64944319242,51782.732727031005,13702.420636616644,20543.761525640177,6739.989568701556,13006.912529115643
d,0.02493444485988665,-1.7009256434981108,1.745003050220403,-0.50390625,-3.625732421875,2.1259765625,2.00050390526581,2.00050390526581,2.00050390526581,1.414391708567966,1.414391708567966,1.414391708567966,0.3627016612812393,0.49368778347899495,0.2578440684882974,4.095713427822192,6.178267049390827,2.5986015664052924,90.06714420654912,85.56887594458438,-6.777991183879093,96,96,0,2.00050390526581,2.00050390526581,2.00050390526581,1.414391708567966,1.414391708567966,1.414391708567966,668116.4736860236,672732.1174126711,772245.6553725698,924839583.0682029,933368310.6369485,1121856909.568569,0.09011774711704974,0.0357763333644915,0.12949881373484728,-0.01623778066947418,0.188720703125,0.04833984375,0.27911376953125,-0.07666015625,2.00050390526581,2.00050390526581,2.00050390526581,2.00050390526581,1.414391708567966,1.414391708567966,1.414391708567966,1.414391708567966,0.0006068426110130299,0.0006607141610130113,0.0005810097596056956,0.0007159720111859001,0.0008135138040665609,0.0009112026813419375,0.0007676703005227075,0.0010142030116141122,-0.1412889860203978,-0.12026904211349153,0.1693440697277918,-1.337242912842488,-0.22661421185334846,1.4061862204971616,2.00050390526581,2.00050390526581,2.00050390526581,1.414391708567966,1.414391708567966,1.414391708567966,0.0031485782315914617,0.00043050834601067895,0.0023367272663671066,0.007307174639034481,0.0005147214527309334,0.004909917601813222,-1.2081756245268735,-1.3209689629068888,-1.0794852384557154,-0.9137017411052233,-0.7910673732021196,-0.5813777441332324,-0.8993186979560939,-1.6570779712339136,-1,-1,0,-1,-1,-1,-1,-1,2.0015151515151515,2.0015151515151515,2.0015151515151515,2.0015151515151515,2.0015151515151515,2.0015151515151515,2.0015151515151515,2.0015151515151515,1.4147491479110887,1.4147491479110887,1.4147491479110887,1.4147491479110887,1.4147491479110887,1.4147491479110887,1.4147491479110887,1.4147491479110887,563.385960477263,154.6399835381145,535.7869609125205,559.5128449545388,206.7569510701642,280.22130794563856,121.56997730542494,199.18838482115447,51055.472464437975,9107.44727277505,47748.21340523085,50588.02069293062,13414.704121632745,20120.363087979695,6607.990146321464,12763.985021908922
d,-0.0541849746987021,-1.7190747160846724,1.7369226330732386,-0.62841796875,-3.50146484375,2.12548828125,2.0004945598417407,2.0004945598417407,2.0004945598417407,1.414388404873902,1.414388404873902,1.414388404873902,0.3612956923787896,0.48602949613982943,0.25349565645114436,4.100056928239509,6.088678051627894,2.556231633763212,85.57611248454883,79.14779048207664,-9.144962917181706,80,80,0,2.0004945598417407,2.0004945598417407,2.0004945598417407,1.414388404873902,1.414388404873902,1.414388404873902,660256.038192104,666765.9358141938,760554.809900927,916057393.2572821,928119820.951945,1106148746.7963166,0.0819319188668495,0.0439934012621678,0.15638331164535693,-0.004643651257339307,0.18817138671875,0.064453125,0.3251953125,-0.045166015625,2.0004945598417407,2.0004945598417407,2.0004945598417407,2.0004945598417407,1.414388404873902,1.414388404873902,1.414388404873902,1.414388404873902,0.000603342360908291,0.0006403074802926724,0.0005459828549630283,0.0006905730478233643,0.0008123152374294655,0.0008793415795992234,0.0007110140491337381,0.0009725658317490108,-0.13643164127926086,-0.1148261356045565,0.2066073754958743,-1.3002989508566916,-0.22474846051410138,1.494175581456437,2.0004945598417407,2.0004945598417407,2.0004945598417407,1.414388404873902,1.414388404873902,1.414388404873902,0.003076522650162925,0.00041846230409585855,0.0022082262560496266,0.007129400261931537,0.0004987098713625962,0.004581745210044016,-1.2436849925705795,-1.4398216939078752,-1.162704309063893,-0.8610698365527489,-0.8112927191679049,-0.6582466567607727,-0.913075780089153,-1.6656760772659733,-1,-1,0,-1,-1,-1,-1,-1,2.0014869888475837,2.0014869888475837,2.0014869888475837,2.0014869888475837,2.0014869888475837,2.0014869888475837,2.0014869888475837,2.0014869888475837,1.4147391946389214,1.4147391946389214,1.4147391946389214,1.4147391946389214,1.4147391946389214,1.4147391946389214,1.4147391946389214,1.4147391946389214,553.3931120906219,152.42137860269517,526.8885392139862,548.4547284847649,203.05518816890267,275.6472272193326,119.37855593919949,195.54850333451355,50164.13782338251,8989.651733084613,46986.52813789794,49568.15263669578,13177.523737072235,19807.052721167445,6490.080966345667,12532.018147165432
d,-0.18293792591215396,-1.7507010001821273,1.7643081346375669,-0.62939453125,-3.50146484375,2.1259765625,2.000485790624241,2.000485790624241,2.000485790624241,1.4143853048671855,1.4143853048671855,1.4143853048671855,0.3635024542578377,0.4799777851397834,0.24757198511929077,4.158198754542615,6.023611640530356,2.491709718538749,81.8281629431763,73.01154990286547,-10.075264084507042,80,64,-0.0625,2.000485790624241,2.000485790624241,2.000485790624241,1.4143853048671855,1.4143853048671855,1.4143853048671855,652279.077448447,661093.5202969793,748091.367459508,906720382.4339993,923094113.1689512,1088516387.7446194,0.08292897665830652,0.05953281397029808,0.1388751229596057,-0.00007327775922778048,0.189239501953125,0.095703125,0.27911376953125,-0.0443115234375,2.000485790624241,2.000485790624241,2.000485790624241,2.000485790624241,1.4143853048671855,1.4143853048671855,1.4143853048671855,1.4143853048671855,0.0005917203466707517,0.000613985994148145,0.0005517471100983591,0.0006736772201928856,0.0007962524557816186,0.0008364501562781272,0.0007253520958671366,0.0009465958522767256,-0.1522115901771912,-0.09795019761208289,0.2044575443470305,-1.3722381994088135,-0.17132208386688963,1.5024223096226292,2.000485790624241,2.000485790624241,2.000485790624241,1.4143853048671855,1.4143853048671855,1.4143853048671855,0.0030658629256280286,0.0003988242653085795,0.0021738657029333652,0.007138918528554665,0.00047054830412378767,0.004513766216762203,-1.3457330415754925,-1.4711889132020424,-1.2574762946754194,-0.8570386579139314,-0.8132749817651349,-0.6732312180889861,-0.8796498905908097,-1.6615609044493072,-1,-1,0,-1,-1,-1,-1,-1,2.0014598540145987,2.0014598540145987,2.0014598540145987,2.0014598540145987,2.0014598540145987,2.0014598540145987,2.0014598540145987,2.0014598540145987,1.4147296045586233,1.4147296045586233,1.4147296045586233,1.4147296045586233,1.4147296045586233,1.4147296045586233,1.4147296045586233,1.4147296045586233,544.6111450338581,149.8138684495551,518.4579433456134,538.4137524819116,199.3694712877335,270.74603035909195,117.05134568336112,191.9604662642198,49407.6863923334,8839.245093108693,46269.75450348857,48659.46661695076,12938.701523829812,19457.869304055417,6360.838457301419,12301.598444947853
d,-0.20578906156838778,-1.5832331462034939,1.5828748248569044,-0.75390625,-3.37548828125,1.8759765625,2.000477099236641,2.000477099236641,2.000477099236641,1.4143822323674182,1.4143822323674182,1.4143822323674182,0.35851760458342563,0.4581785825799621,0.25256120562313644,4.106976982485178,5.695799152259684,2.5743275838937247,79.97471977104698,71.69352194133079,-6.705312425471023,80,64,0,2.000477099236641,2.000477099236641,2.000477099236641,1.4143822323674182,1.4143822323674182,1.4143822323674182,642429.3926976809,650573.6065413085,731111.7457329492,893872324.483288,909013237.5738037,1062070393.0476264,0.10003614073120379,0.06989309982783806,0.15110587027486286,0.01840162652504919,0.2198486328125,0.12725830078125,0.31048583984375,0.01776123046875,2.000477099236641,2.000477099236641,2.000477099236641,2.000477099236641,1.4143822323674182,1.4143822323674182,1.4143822323674182,1.4143822323674182,0.0005656101587099485,0.0005933330687726332,0.000531258685956691,0.000643350679409175,0.0007542776202731704,0.0008039697210152206,0.0006938245762567733,0.000895581896450171,-0.11179242160782651,-0.10387091958786013,0.2368579737802234,-1.2226712243796303,-0.17276332404628567,1.5776840114723543,2.000477099236641,2.000477099236641,2.000477099236641,1.4143822323674182,1.4143822323674182,1.4143822323674182,0.002901537732683814,0.00039587706383528134,0.0020651090431922756,0.00667338095655156,0.00046872927079227,0.004240648461775957,-1.336676217765043,-1.4512893982808024,-1.403295128939828,-0.8904011461318052,-0.8159025787965616,-0.7070200573065902,-0.917621776504298,-1.6368194842406876,-1,-1,-1,-1,-1,-1,-1,-1,2.0014336917562723,2.0014336917562723,2.0014336917562723,2.0014336917562723,2.0014336917562723,2.0014336917562723,2.0014336917562723,2.0014336917562723,1.414720358147246,1.414720358147246,1.414720358147246,1.414720358147246,1.414720358147246,1.414720358147246,1.414720358147246,1.414720358147246,534.7553451024681,147.02863528220115,510.9494765178749,529.1960830172621,195.8197517592045,266.16782891357303,115.12782911228798,188.3721715683425,48510.4516839021,8672.900705859638,45652.62463660969,47839.20649213927,12708.778202692642,19135.327033376107,6259.4411429875745,12068.430635050809
d,-0.2705150217146121,-1.582926680227619,1.5509250909963088,-0.75439453125,-3.25048828125,1.6259765625,2.0004688232536334,2.0004688232536334,2.0004688232536334,1.4143793067114752,1.4143793067114752,1.4143793067114752,0.35654130466801315,0.4502119201946203,0.24983643515436602,4.100662374586294,5.59667644721991,2.5522031883300165,78.99225158190767,70.02973400515585,-8.201942231075698,80,64,0,2.0004688232536334,2.0004688232536334,2.0004688232536334,1.4143793067114752,1.4143793067114752,1.4143793067114752,632237.9997392015,640911.0849327868,720008.0769052173,880133072.8955582,896268070.5136586,1046704373.1655521,0.11175344005412174,0.04805436457295817,0.1258203342420758,0.011604704229955179,0.25067138671875,0.095703125,0.27911376953125,-0.029296875,2.0004688232536334,2.0004688232536334,2.0004688232536334,2.0004688232536334,1.4143793067114752,1.4143793067114752,1.4143793067114752,1.4143793067114752,0.0005455104498297547,0.0006032065544489274,0.0005437819091329934,0.0006387672839091372,0.0007229556344193637,0.000826663857328886,0.0007199028415407051,0.0008922730318128002,-0.06663088108626582,-0.07482817849755696,0.2047824403080494,-0.9653083749856621,-0.11519607178408967,1.5477749671598517,2.0004688232536334,2.0004688232536334,2.0004688232536334,1.4143793067114752,1.4143793067114752,1.4143793067114752,0.002734125435202539,0.00036912368576335334,0.0020972866402250417,0.006201053254520465,0.0004294738899909263,0.004354295862251593,-1.434201266713582,-1.5137227304714989,-1.5320197044334976,-0.8895144264602393,-0.8085855031667839,-0.7445460942997889,-0.9641097818437719,-1.6600985221674878,-1,-1,-1,-1,-1,-1,-1,-1,2.0014084507042256,2.0014084507042256,2.0014084507042256,2.0014084507042256,2.0014084507042256,2.0014084507042256,2.0014084507042256,2.0014084507042256,1.4147114372564553,1.4147114372564553,1.4147114372564553,1.4147114372564553,1.4147114372564553,1.4147114372564553,1.4147114372564553,1.4147114372564553,526.5557938517995,144.76909460231178,503.50483948667335,519.8848281440727,192.33229641505594,261.7795664896949,113.30969732746166,185.204224330338,47803.22758743399,8546.058021560464,45033.55425948697,46997.44165352106,12481.524935350564,18826.90877293609,6164.352499595554,11868.592267177868
d,-0.3611378066689703,-1.5330672476099978,1.4713489925276435,-0.87939453125,-3.25,1.376953125,2.0004608294930875,2.0004608294930875,2.0004608294930875,1.414376480818699,1.414376480818699,1.414376480818699,0.35635547298626424,0.43878578240245253,0.24965899794344656,4.121365894351025,5.43917866538194,2.564442068556244,73.23668221607925,74.48201739230592,-15.659309490900714,80,64,-0.0625,2.0004608294930875,2.0004608294930875,2.0004608294930875,1.414376480818699,1.414376480818699,1.414376480818699,626930.0028181312,625744.6398808411,715467.1188191812,875296786.9924101,873090868.6847117,1043877414.333338,0.10564055109979699,0.05483371160788845,0.10501941539427839,0.021094346150800507,0.23504638671875,0.11016845703125,0.23223876953125,-0.01336669921875,2.0004608294930875,2.0004608294930875,2.0004608294930875,2.0004608294930875,1.414376480818699,1.414376480818699,1.414376480818699,1.414376480818699,0.0005414776458523546,0.0005867278127271078,0.0005525274987139729,0.0006188780277478744,0.0007199527110097252,0.0008012699015130037,0.0007396083262471707,0.0008603397996884877,-0.08187643996012216,-0.08553399502125605,0.17337340872487197,-1.0390513617112052,-0.15300069668231656,1.4642293115435272,2.0004608294930875,2.0004608294930875,2.0004608294930875,1.414376480818699,1.414376480818699,1.414376480818699,0.002726034196348039,0.00036996104148811777,0.0021284091492391496,0.00621209842226027,0.00043324934995578654,0.004466185440465925,-1.4674965421853388,-1.5504840940525588,-1.5110650069156293,-0.9190871369294605,-0.8589211618257261,-0.7123098201936376,-0.863762102351314,-1.6431535269709543,-1,-1,-1,-1,-1,-1,-1,-1,2.0013840830449827,2.0013840830449827,2.0013840830449827,2.0013840830449827,2.0013840830449827,2.0013840830449827,2.0013840830449827,2.0013840830449827,1.414702824993639,1.414702824993639,1.414702824993639,1.414702824993639,1.414702824993639,1.414702824993639,1.414702824993639,1.414702824993639,517.8641269205708,142.45672515276468,518.3911909238977,511.2603338566202,189.32155650263388,257.013890458639,110.91772579222372,181.90350367215666,47026.63114763299,8413.30641226393,47090.458051593254,46228.75846491273,12292.952007845019,18478.42245917615,6026.391930238532,11654.961677568825
d,-0.15002565826727066,-1.415711707248018,1.3469506476500566,-0.75390625,-3.00146484375,1.12646484375,2.000453103760761,2.000453103760761,2.000453103760761,1.4143737496718332,1.4143737496718332,1.4143737496718332,0.3369927908655295,0.4228281389219603,0.25183573198175996,3.8471375685272355,5.206294667044975,2.6089556905337563,71.55193941109853,74.70460079275198,-17.481412797281994,64,64,-0.0625,2.000453103760761,2.000453103760761,2.000453103760761,1.4143737496718332,1.4143737496718332,1.4143737496718332,618004.6556827114,615051.9123294434,705344.3281419388,863573350.5033041,858076352.4566134,1030018773.8330624,0.0827877403250637,0.058275606840140146,0.11769834282984144,-0.006704687721191959,0.204345703125,0.126953125,0.27911376953125,-0.060302734375,2.000453103760761,2.000453103760761,2.000453103760761,2.000453103760761,1.4143737496718332,1.4143737496718332,1.4143737496718332,1.4143737496718332,0.0005520513306951545,0.0005738185084547766,0.0005324280764152045,0.0006346851216479429,0.0007429327739977618,0.000782245317796655,0.0007079319306719133,0.000894790420971148,-0.04627051334160714,-0.06490501192032672,0.14048192891121813,-0.7992825896744024,-0.097001159776257,1.3956406017384304,2.000453103760761,2.000453103760761,2.000453103760761,1.4143737496718332,1.4143737496718332,1.4143737496718332,0.002592505299288506,0.0003503392188771186,0.002163099312427647,0.005842558995094006,0.00040516188133066716,0.004589290138462421,-1.4829931972789117,-1.4945578231292518,-1.465986394557823,-0.9217687074829932,-0.8680272108843538,-0.7224489795918367,-0.8700680272108844,-1.6408163265306122,-1,-1,0,-1,-1,-1,-1,-1,2.001361470388019,2.001361470388019,2.001361470388019,2.001361470388019,2.001361470388019,2.001361470388019,2.001361470388019,2.001361470388019,1.41469483295445,1.41469483295445,1.41469483295445,1.41469483295445,1.41469483295445,1.41469483295445,1.41469483295445,1.41469483295445,509.60220681856805,139.85206087647248,509.3998713143725,502.9533786813631,186.28913854786506,252.89764505352778,109.13552941221702,178.92284202594246,46282.2195619743,8253.996347147464,46257.71962494241,45478.844115065775,12097.319683755784,18184.39369167096,5930.081438540826,11463.753229963537
d,-0.20547034020884453,-1.4024882847353892,1.3281793502885901,-0.7548828125,-3.00146484375,1.25048828125,2.000446229361892,2.000446229361892,2.000446229361892,1.4143713194779834,1.4143713194779834,1.4143713194779834,0.33531349517553066,0.415468814584578,0.24897148239588526,3.8411177707534305,5.11180353651214,2.582591514827045,67.27520633504349,83.52881719830471,-21.007291434307383,64,80,-0.0625,2.000446229361892,2.000446229361892,2.000446229361892,1.4143713194779834,1.4143713194779834,1.4143713194779834,612593.2954102452,597635.6181485421,698212.5382082035,857865558.260083,830051190.4298619,1021346498.1552013,0.08078251399819457,0.05282530826089533,0.11931603810576065,-0.0076279785918678894,0.20379638671875,0.11175537109375,0.27911376953125,-0.060302734375,2.000446229361892,2.000446229361892,2.000446229361892,2.000446229361892,1.4143713194779834,1.4143713194779834,1.4143713194779834,1.4143713194779834,0.0005454004814124697,0.000569923405123825,0.0005230026958100009,0.0006259298496736619,0.0007347567799735609,0.0007791329471409671,0.000694802676686626,0.0008828572006514007,-0.04207641117467233,-0.05086997655534208,0.124609196283706,-0.791737485991568,-0.07109552369219316,1.3842970895582596,2.000446229361892,2.000446229361892,2.000446229361892,1.4143713194779834,1.4143713194779834,1.4143713194779834,0.002543129008439212,0.0003362214489314241,0.002164283591923837,0.005723751476807768,0.0003854991872975209,0.004616099224505609,-1.5147453083109919,-1.517426273458445,-1.4537533512064342,-0.8659517426273459,-0.8820375335120644,-0.7379356568364611,-0.9021447721179625,-1.6427613941018766,-1,-1,0,-1,-1,-1,-1,-1,2.001341381623072,2.001341381623072,2.001341381623072,2.001341381623072,2.001341381623072,2.001341381623072,2.001341381623072,2.001341381623072,1.4146877329018839,1.4146877329018839,1.4146877329018839,1.4146877329018839,1.4146877329018839,1.4146877329018839,1.4146877329018839,1.4146877329018839,502.46786673732333,137.90522492356794,501.75280584110305,494.89624714404727,183.62899860917767,249.28616555456216,107.66257696413764,176.29857291021486,45645.783459858445,8141.365184282395,45559.19279273126,44730.98775312344,11926.452848955238,17927.532190659425,5852.516345251741,11295.912947263529
d,-0.292567462619453,-1.3783639059753954,1.3659480250782623,-0.87939453125,-2.87646484375,1.37548828125,2.000439463854098,2.000439463854098,2.000439463854098,1.4143689277745386,1.4143689277745386,1.4143689277745386,0.33558678730158664,0.4074737912516411,0.2433099855343867,3.8649204172804805,5.006493514989823,2.5173715999446555,61.43237862478032,79.31295309753955,-23.34320079086116,64,64,-0.0625,2.000439463854098,2.000439463854098,2.000439463854098,1.4143689277745386,1.4143689277745386,1.4143689277745386,608665.5103373325,592377.1724834396,689964.1126785963,854881021.3132138,824514891.3236507,1010421908.1496105,0.08955766781771748,0.05738613349901142,0.10321641596842734,-0.014426313510888071,0.2049560546875,0.125762939453125,0.2630615234375,-0.0604248046875,2.000439463854098,2.000439463854098,2.000439463854098,2.000439463854098,1.4143689277745386,1.4143689277745386,1.4143689277745386,1.4143689277745386,0.0005297489496094653,0.0005573247802896014,0.0005284313297565915,0.0006227686925570927,0.0007103857211453947,0.0007601136923315511,0.000708030819271573,0.0008813933718920552,-0.06517458428944639,-0.03168598237343646,0.14373380976734484,-0.8694986717774427,-0.017274492475541765,1.397218714986559,2.000439463854098,2.000439463854098,2.000439463854098,1.4143689277745386,1.4143689277745386,1.4143689277745386,0.0025595096287715133,0.00031951360667965834,0.0020912053448417164,0.005802428194222275,0.0003620094391131461,0.004431965027993435,-1.5102310231023102,-1.615841584158416,-1.4897689768976898,-0.9042904290429042,-0.8851485148514852,-0.761056105610561,-0.9062706270627062,-1.6224422442244224,-1,-1,0,-1,-1,-1,-1,-1,2.001321003963012,2.001321003963012,2.001321003963012,2.001321003963012,2.001321003963012,2.001321003963012,2.001321003963012,2.001321003963012,1.4146805307075558,1.4146805307075558,1.4146805307075558,1.4146805307075558,1.4146805307075558,1.4146805307075558,1.4146805307075558,1.4146805307075558,494.7950544231268,136.29437513951157,494.55874077260796,487.82895624516425,180.86236355906462,245.67278767019437,106.04678161078876,173.50800785247515,44947.41065051747,8055.789722911743,44918.79047462065,44105.65858856567,11747.221210473503,17671.779449190995,5765.02065919382,11114.67860002082
d,-0.39877539443226123,-1.2190616666328244,1.435046325908328,-1.12890625,-2.87548828125,1.50048828125,2.000433275563258,2.000433275563258,2.000433275563258,1.4143667401219735,1.4143667401219735,1.4143667401219735,0.33737794383981035,0.3907918681458681,0.23650355005204637,3.910889460196456,4.757520287489359,2.435399300834926,60.47008338748105,73.61065085553389,-26.494395711500974,64,64,-0.0625,2.000433275563258,2.000433275563258,2.000433275563258,1.4143667401219735,1.4143667401219735,1.4143667401219735,600971.7707120425,589130.0494310091,683363.1633065627,844485223.4655272,822371766.2712716,1002279184.1069379,0.08838431308970246,0.060563293813961985,0.0902312445852285,-0.004438684904293914,0.204345703125,0.12701416015625,0.23187255859375,-0.04449462890625,2.000433275563258,2.000433275563258,2.000433275563258,2.000433275563258,1.4143667401219735,1.4143667401219735,1.4143667401219735,1.4143667401219735,0.0005232632969572744,0.0005467704899607342,0.0005322879642697122,0.0006048590213927296,0.000702123737341292,0.0007444920208094118,0.0007183159114267419,0.0008517762139924345,-0.07100430579281126,-0.026885728862596197,0.13792556859129573,-0.9590514238604786,-0.011213567419796016,1.3923797768269477,2.000433275563258,2.000433275563258,2.000433275563258,1.4143667401219735,1.4143667401219735,1.4143667401219735,0.002537276875776981,0.00031219438855045154,0.002073782494291468,0.005762493387824146,0.00035265773601336645,0.004403563165268648,-1.4697462589459986,-1.5914118412491867,-1.4534808067664282,-0.8841899804814574,-0.878334417696812,-0.7364996746909565,-0.904359141184125,-1.6005204944697462,-1,-1,0,-1,-1,-1,-1,-1,2.0013020833333335,2.0013020833333335,2.0013020833333335,2.0013020833333335,2.0013020833333335,2.0013020833333335,2.0013020833333335,2.0013020833333335,1.41467384344708,1.41467384344708,1.41467384344708,1.41467384344708,1.41467384344708,1.41467384344708,1.41467384344708,1.41467384344708,487.2588774411566,134.2276981499308,487.0738264979486,480.62652185277597,178.23644124303203,241.98449248061965,104.52255893815807,170.90282410601134,44249.085849183524,7931.35665052923,44226.68073870626,43447.84751268901,11575.860704432442,17402.354157158592,5682.0449803109595,10945.197643755444
e,-0.22081891592182498,-1.2217838055296157,1.545101449939968,-0.87939453125,-2.75146484375,1.626953125,2.0004269854824934,2.0004269854824934,2.0004269854824934,1.4143645164816931,1.4143645164816931,1.4143645164816931,0.32177337823830726,0.3853042562431324,0.2278282007069122,3.689521214797915,4.6914627638084045,2.328340569526109,60.654068836712916,72.49040821771611,-29.211299359658483,64,64,-0.0625,2.0004269854824934,2.0004269854824934,2.0004269854824934,1.4143645164816931,1.4143645164816931,1.4143645164816931,592087.350778334,581570.7498963982,676097.2583217543,831925128.4174721,812281581.700266,992922681.5353055,0.08325988704392343,0.06928213276247332,0.07541958575823772,-0.013118832648245732,0.18768310546875,0.17401123046875,0.18524169921875,-0.07562255859375,2.0004269854824934,2.0004269854824934,2.0004269854824934,2.0004269854824934,1.4143645164816931,1.4143645164816931,1.4143645164816931,1.4143645164816931,0.0005198593461428682,0.0005315515948166354,0.0005368717838910306,0.0006039099770260312,0.0006994408718037653,0.0007204941059892116,0.0007301251433022583,0.0008541473630151668,-0.09366660095347559,-0.044915833606361574,0.16758696465162598,-1.0390513617112052,-0.07109552369219316,1.4414092961139693,2.0004269854824934,2.0004269854824934,2.0004269854824934,1.4143645164816931,1.4143645164816931,1.4143645164816931,0.002553758391965732,0.00031819864721591444,0.0019837369008279906,0.005840852971479419,0.0003634971167184526,0.004170760909065417,-1.408974358974359,-1.5621794871794872,-1.3705128205128205,-0.8615384615384616,-0.8782051282051282,-0.7384615384615385,-0.8448717948717949,-1.4461538461538461,-1,-1,0,-1,-1,-1,-1,-1,2.0012828736369466,2.0012828736369466,2.0012828736369466,2.0012828736369466,2.0012828736369466,2.0012828736369466,2.0012828736369466,2.0012828736369466,1.4146670539872435,1.4146670539872435,1.4146670539872435,1.4146670539872435,1.4146670539872435,1.4146670539872435,1.4146670539872435,1.4146670539872435,479.40086668990807,132.1119064923942,478.9702198582009,473.2955927445174,175.6103833519668,238.43399833165552,102.74420936377145,167.52629896011447,43515.096661754586,7803.644547737142,43462.984859690856,42777.770546655745,11405.345716349902,17147.43274776616,5581.07688588023,10710.724736479166
e,-0.08166290469638719,-1.2434349984200548,1.6201255192424162,-0.75390625,-2.75146484375,1.8779296875,2.0004214075010536,2.0004214075010536,2.0004214075010536,1.41436254457655,1.41436254457655,1.41436254457655,0.3094670744152144,0.3817095155961431,0.22137041146321187,3.5179717118062195,4.653542943497299,2.2506044520052266,59.57502106593638,70.21508321044871,-26.06276332420476,64,48,-0.0625,2.0004214075010536,2.0004214075010536,2.0004214075010536,1.41436254457655,1.41436254457655,1.41436254457655,585309.0050191839,575962.935431971,664239.8848215172,822848758.7040917,805376820.1170506,974031517.8119483,0.08865728673619523,0.08298173723206761,0.09187927953263245,-0.027717122635842376,0.188720703125,0.205078125,0.23187255859375,-0.0911865234375,2.0004214075010536,2.0004214075010536,2.0004214075010536,2.0004214075010536,1.41436254457655,1.41436254457655,1.41436254457655,1.41436254457655,0.0005087183073046416,0.0005134448521820284,0.00051637558216395,0.0006091689820954581,0.0006825108604309125,0.0006909789478326985,0.0006962427310369121,0.0008678742163298024,-0.06031250425488514,-0.060874341012333806,0.1373645287686378,-0.8413570187358537,-0.09823002280784911,1.3922036405901672,2.0004214075010536,2.0004214075010536,2.0004214075010536,1.41436254457655,1.41436254457655,1.41436254457655,0.0024432533962225915,0.0003234417269741787,0.00201813900123637,0.0055305003661266445,0.0003731365629501223,0.004286220519543968,-1.390259329538267,-1.4958886780518659,-1.3409234661606577,-0.8583175205566097,-0.868437697659709,-0.7413029728020241,-0.8298545224541429,-1.4598355471220745,-1,-1,0,-1,-1,-1,-1,-1,2.00126582278481,2.00126582278481,2.00126582278481,2.00126582278481,2.00126582278481,2.00126582278481,2.00126582278481,2.00126582278481,1.4146610275203069,1.4146610275203069,1.4146610275203069,1.4146610275203069,1.4146610275203069,1.4146610275203069,1.4146610275203069,1.4146610275203069,472.8323588074713,130.04876622687195,472.2874896729103,466.9796098082219,173.22475459931843,235.28966303615437,101.32135629582298,165.37823162275606,42912.80242101466,7675.716723906867,42846.88090431333,42206.03103143603,11249.258490915374,16921.846596206065,5502.7352226355715,10575.033414111376
e,-0.12051252078137989,-1.177154059025613,1.5872688071487946,-0.87890625,-2.75048828125,1.876708984375,2.000415713988776,2.000415713988776,2.000415713988776,1.4143605318265835,1.4143605318265835,1.4143605318265835,0.30750646897193157,0.37222933033438493,0.21988151226078909,3.504135419687743,4.520529706511138,2.2405784771016677,62.49406431837074,71.78651028678304,-31.9690357439734,64,55.9375,-0.0625,2.000415713988776,2.000415713988776,2.000415713988776,1.4143605318265835,1.4143605318265835,1.4143605318265835,574865.9046987904,566832.0102165615,660884.3291603879,806982174.0623475,791980271.4969515,971872167.4283832,0.08602562806850063,0.08073052384906873,0.08458251192088138,-0.03205697811947995,0.173248291015625,0.20404052734375,0.2008056640625,-0.092041015625,2.000415713988776,2.000415713988776,2.000415713988776,2.000415713988776,1.4143605318265835,1.4143605318265835,1.4143605318265835,1.4143605318265835,0.0005039396334837295,0.0005083107768303201,0.000515765352916612,0.0006048341692207849,0.000677038284224934,0.0006848797035814637,0.000698304368614583,0.0008635555842355854,-0.05444916136448707,-0.06264722500436112,0.14137078687609986,-0.8179596979614017,-0.10615528848448921,1.3922917087085573,2.000415713988776,2.000415713988776,2.000415713988776,1.4143605318265835,1.4143605318265835,1.4143605318265835,0.002397042090774297,0.00032011526739172236,0.0019829316319806543,0.005415967958251969,0.00036970079946887065,0.004205834642657503,-1.325015595757954,-1.5589519650655022,-1.3512164691203992,-0.8708671241422333,-0.8733624454148472,-0.7878976918278229,-0.8696194635059263,-1.3961322520274486,-1,-1,-1,-1,-1,-1,-1,-1,2.0012484394506864,2.0012484394506864,2.0012484394506864,2.0012484394506864,2.0012484394506864,2.0012484394506864,2.0012484394506864,2.0012484394506864,1.4146548835142394,1.4146548835142394,1.4146548835142394,1.4146548835142394,1.4146548835142394,1.4146548835142394,1.4146548835142394,1.4146548835142394,465.63856845606006,128.55646472138565,465.9238431918888,460.7122913731613,170.87707528723604,232.38249064324893,100.08734331871528,162.76630885051088,42238.62459702799,7593.402168709776,42273.13159736084,41643.85312571088,11097.442672715772,16720.491660981897,5438.553306309267,10400.730915002017
e,-0.006160480100810589,-1.2982752138697928,1.5468087668979582,-0.62939453125,-2.75146484375,1.75048828125,2.0004105090311985,2.0004105090311985,2.0004105090311985,1.4143586917862097,1.4143586917862097,1.4143586917862097,0.2972406139085145,0.375401952842809,0.2189637022195325,3.363124952614779,4.591213694288132,2.237492768839323,58.51636568848758,69.38374717832957,-30.919018058690746,48,48,-0.0625,2.0004105090311985,2.0004105090311985,2.0004105090311985,1.4143586917862097,1.4143586917862097,1.4143586917862097,571090.6887752134,561782.8256256336,651626.0594429462,803289782.4688898,785880925.6572753,957774777.2731413,0.09883724833425252,0.06960058182924404,0.0916372291757516,-0.014409269367721373,0.20379638671875,0.1739501953125,0.23187255859375,-0.0765380859375,2.0004105090311985,2.0004105090311985,2.0004105090311985,2.0004105090311985,1.4143586917862097,1.4143586917862097,1.4143586917862097,1.4143586917862097,0.0004876353893250544,0.0005107960569190746,0.0005037027252757844,0.0005817427095023975,0.0006507174085547644,0.0006922487580010217,0.0006794610062239835,0.0008233289813112084,-0.036886076852148855,-0.07505793121279072,0.1546914666912811,-0.7003497837788715,-0.13635429753919048,1.3995753251015348,2.0004105090311985,2.0004105090311985,2.0004105090311985,1.4143586917862097,1.4143586917862097,1.4143586917862097,0.0023282320999295815,0.0003233694765459004,0.001932148225832572,0.005231591602749617,0.00037629706875180486,0.0040799301180652935,-1.2758620689655173,-1.5892857142857142,-1.3091133004926108,-0.8516009852216748,-0.8719211822660099,-0.7992610837438424,-0.8719211822660099,-1.3823891625615763,-1,-1,0,-1,-1,-1,-1,-1,2.0012322858903264,2.0012322858903264,2.0012322858903264,2.0012322858903264,2.0012322858903264,2.0012322858903264,2.0012322858903264,2.0012322858903264,1.4146491741383538,1.4146491741383538,1.4146491741383538,1.4146491741383538,1.4146491741383538,1.4146491741383538,1.4146491741383538,1.4146491741383538,459.09498629493254,127.0338809893107,459.4520939574782,454.55478741468136,168.66156223261822,229.45715310720544,98.80318149652378,160.5902505798617,41629.26484892771,7506.222438420302,41672.4456193498,41081.250651322516,10953.430741124168,16511.916214789027,5368.95685475096,10260.162582332803
e,0.07458861810475709,-1.290010694743168,1.5394274259868421,-0.56640625,-2.751708984375,1.62646484375,2.0004049402713098,2.0004049402713098,2.0004049402713098,1.4143567231329266,1.4143567231329266,1.4143567231329266,0.28879421752896217,0.3697814868395969,0.21632596378874416,3.2510748908275358,4.520320227733077,2.2116709454807615,55.38372975708502,71.02370951417004,-31.886298076923076,48,64,-0.0625,2.0004049402713098,2.0004049402713098,2.0004049402713098,1.4143567231329266,1.4143567231329266,1.4143567231329266,566012.8920374884,552788.9668046846,643688.5785508492,797402171.3116271,772659481.0423138,946549623.8140633,0.0837655380187247,0.061141646535773024,0.10581227661627024,-0.018094650453884108,0.1732177734375,0.14288330078125,0.26361083984375,-0.091094970703125,2.0004049402713098,2.0004049402713098,2.0004049402713098,2.0004049402713098,1.4143567231329266,1.4143567231329266,1.4143567231329266,1.4143567231329266,0.0004926397297710551,0.0005105706983279131,0.00048588034047395004,0.0005770305078928366,0.0006626459695126917,0.000694997910644429,0.000650551105424901,0.0008181645970786197,-0.04786529311973101,-0.06066011866262484,0.15512637585477893,-0.7978406541114421,-0.10615528848448921,1.4001643255914151,2.0004049402713098,2.0004049402713098,2.0004049402713098,1.4143567231329266,1.4143567231329266,1.4143567231329266,0.002320549301614936,0.00031068667378243204,0.0019051184119365224,0.005232349144923167,0.00035837619192514726,0.004022273663137808,-1.2654921020656136,-1.6567436208991495,-1.4416767922235723,-0.8651275820170109,-0.8645200486026732,-0.7746051032806804,-0.8693803159173754,-1.3602673147023085,-1,-1,-1,-1,-1,-1,-1,-1,2.0012158054711247,2.0012158054711247,2.0012158054711247,2.0012158054711247,2.0012158054711247,2.0012158054711247,2.0012158054711247,2.0012158054711247,1.4146433492124877,1.4146433492124877,1.4146433492124877,1.4146433492124877,1.4146433492124877,1.4146433492124877,1.4146433492124877,1.4146433492124877,452.854594034872,125.64122123477827,454.72327333812706,448.62723159829125,166.3691178721505,226.2286274310407,97.47414238141887,158.32948671552427,41060.25549612874,7429.954298308259,41286.32120351122,40549.99320996081,10803.726022352259,16275.713049984437,5296.583711969728,10113.287388922954
e,0.19910306850529363,-1.245842976709199,1.5873873227127446,-0.37939453125,-2.75,1.87646484375,2.0003996003996005,2.0003996003996005,2.0003996003996005,1.4143548353930142,1.4143548353930142,1.4143548353930142,0.2783539401009329,0.36211824725782515,0.211357674592285,3.1090433623184026,4.415340096690728,2.153712082749542,51.92346683979225,69.32936725928886,-30.82377397123452,48,48,-0.0625,2.0003996003996005,2.0003996003996005,2.0003996003996005,1.4143548353930142,1.4143548353930142,1.4143548353930142,561467.7124931889,546906.8784949379,634231.5887088403,792373600.4984577,765093999.4426696,932167821.2178161,0.0951223278159958,0.0746114306387023,0.09808864128670595,-0.02781252340940871,0.203857421875,0.188629150390625,0.23193359375,-0.1068115234375,2.0003996003996005,2.0003996003996005,2.0003996003996005,2.0003996003996005,1.4143548353930142,1.4143548353930142,1.4143548353930142,1.4143548353930142,0.00047749220747968273,0.0004933398648814303,0.0004853670586481139,0.0005777433468383779,0.000638437908703345,0.0006668455066308978,0.0006525152693366061,0.0008231460257134916,-0.0790292462016365,-0.06733119930500678,0.17975659968173605,-0.9614357042784346,-0.1336218387537056,1.4806220339066283,2.0003996003996005,2.0003996003996005,2.0003996003996005,1.4143548353930142,1.4143548353930142,1.4143548353930142,0.002357755335908799,0.0003103681446453354,0.00183387104995332,0.005368198877889181,0.0003594731592421098,0.003839918510143362,-1.3039568345323742,-1.6780575539568345,-1.4118705035971224,-0.8639088729016786,-0.8836930455635491,-0.7967625899280576,-0.9010791366906474,-1.3657074340527577,-1,-1,-1,-1,-1,-1,-1,-1,2.0011997600479905,2.0011997600479905,2.0011997600479905,2.0011997600479905,2.0011997600479905,2.0011997600479905,2.0011997600479905,2.0011997600479905,1.4146376780108716,1.4146376780108716,1.4146376780108716,1.4146376780108716,1.4146376780108716,1.4146376780108716,1.4146376780108716,1.4146376780108716,447.28922934741536,124.08036465935542,448.41879461105447,442.7027515602359,164.27959268814703,223.3933238297898,96.30871606304271,156.27130864514845,40567.96935837093,7339.549947433043,40704.62499340507,40014.27726912687,10670.305126774594,16075.294404749524,5235.4354126429525,9982.462348394707
e,0.18841003128702608,-1.227663350519599,1.5973559917431872,-0.37939453125,-2.6259765625,2.0009765625,2.000395022713806,2.000395022713806,2.000395022713806,1.4143532170974145,1.4143532170974145,1.4143532170974145,0.2757259316424837,0.3568410895086632,0.2085043704609883,3.081778228779047,4.346413503050166,2.1231700658929853,53.233757898894154,65.40043690758294,-35.61507701421801,48,48,-0.0625,2.000395022713806,2.000395022713806,2.000395022713806,1.4143532170974145,1.4143532170974145,1.4143532170974145,553946.5505067055,543871.8743160857,631314.911277319,781247034.9431957,762359879.6755986,930020729.1915557,0.07935165718645093,0.06944138706201249,0.09823707231036483,-0.027280822561062155,0.18768310546875,0.17364501953125,0.232086181640625,-0.106658935546875,2.000395022713806,2.000395022713806,2.000395022713806,2.000395022713806,1.4143532170974145,1.4143532170974145,1.4143532170974145,1.4143532170974145,0.00048393301667173195,0.0004916584383219728,0.0004796972467116013,0.0005706762160508224,0.0006524464962367904,0.0006663707036340568,0.0006448433122041319,0.0008128634501584184,-0.06965477105996076,-0.06592287693270561,0.19676480726360018,-0.8720919770219369,-0.1330152633860842,1.5333485253998467,2.000395022713806,2.000395022713806,2.000395022713806,1.4143532170974145,1.4143532170974145,1.4143532170974145,0.0023104629359536723,0.000306023789838369,0.0017818176825704602,0.005245214346230042,0.0003541371473342936,0.003709501790318395,-1.2440758293838863,-1.6048578199052133,-1.3909952606635072,-0.8856635071090048,-0.889218009478673,-0.792654028436019,-0.9928909952606635,-1.3471563981042654,-1,-1,-1,-1,-1,-1,-1,-1,2.001185536455246,2.001185536455246,2.001185536455246,2.001185536455246,2.001185536455246,2.001185536455246,2.001185536455246,2.001185536455246,1.4146326507101574,1.4146326507101574,1.4146326507101574,1.4146326507101574,1.4146326507101574,1.4146326507101574,1.4146326507101574,1.4146326507101574,441.3757427033212,122.29003311322381,442.89443253572637,437.6854482629761,162.36416805098864,220.72210948757404,95.50990349736439,154.32631591874465,40013.0904571443,7227.346849438279,40196.76554201026,39567.653079700845,10546.56587169482,15882.490281993796,5198.228377698537,9856.22931412943
e,0.15363218798742445,-1.2721987564583739,1.5525044667881165,-0.50341796875,-2.75048828125,1.75048828125,2.0003900156006242,2.0003900156006242,2.0003900156006242,1.4143514469892637,1.4143514469892637,1.4143514469892637,0.27403335351868663,0.355059658966787,0.20779206353318172,3.069602455895498,4.3359008428596875,2.1225088397613727,51.92536313121466,64.66472509261065,-34.761600701891204,48,48,-0.0625,2.0003900156006242,2.0003900156006242,2.0003900156006242,1.4143514469892637,1.4143514469892637,1.4143514469892637,548005.3731680057,537579.4197931025,622550.9097695044,773375937.2474772,753820155.4470245,916735527.5650475,0.08303261212285533,0.05324819367353529,0.11006523633612181,-0.041014268398749755,0.204345703125,0.1270751953125,0.264892578125,-0.12261962890625,2.0003900156006242,2.0003900156006242,2.0003900156006242,2.0003900156006242,1.4143514469892637,1.4143514469892637,1.4143514469892637,1.4143514469892637,0.00047504022943320646,0.0004978354934766049,0.0004648352658088866,0.0005750479133503238,0.0006392215674057687,0.000680443456297513,0.0006209781591089839,0.0008246752146938887,-0.09612950536552645,-0.045180676066592575,0.16298554977944255,-1.0436074922115945,-0.0869450046834345,1.4425213503705545,2.0003900156006242,2.0003900156006242,2.0003900156006242,1.4143514469892637,1.4143514469892637,1.4143514469892637,0.0023380851714348058,0.0002908042917097972,0.0018204867135605425,0.0053516947773916525,0.0003322604496476499,0.0038334892634520655,-1.2017543859649122,-1.556140350877193,-1.3380116959064328,-0.8432748538011696,-0.8730994152046784,-0.8076023391812865,-0.92046783625731,-1.3538011695906433,-1,-1,0,-1,-1,-1,-1,-1,2.0011702750146285,2.0011702750146285,2.0011702750146285,2.0011702750146285,2.0011702750146285,2.0011702750146285,2.0011702750146285,2.0011702750146285,1.4146272565642968,1.4146272565642968,1.4146272565642968,1.4146272565642968,1.4146272565642968,1.4146272565642968,1.4146272565642968,1.4146272565642968,435.2709964858853,120.50718364917387,436.66033581012715,431.629864398064,160.19277634482404,217.98090595187094,94.01639091844103,152.37618937801182,39446.79075274226,7117.857445171918,39614.760018439825,39007.43120372824,10403.734834340612,15687.604835623279,5112.148617358585,9732.435066660973
e,0.05848812987998843,-1.3002346988263929,1.5294649070091093,-0.50439453125,-2.75146484375,1.5009765625,2.0003856536829927,2.0003856536829927,2.0003856536829927,1.4143499049680008,1.4143499049680008,1.4143499049680008,0.27588132221893774,0.3528030791238505,0.20645383923391464,3.108864647789563,4.315342181410788,2.112204842440288,50.921823790244844,62.85551619433198,-32.966707634470794,48,48,-0.0625,2.0003856536829927,2.0003856536829927,2.0003856536829927,1.4143499049680008,1.4143499049680008,1.4143499049680008,542697.1954270488,533026.1288775001,614001.4831980609,766270639.8862491,748117959.7889835,903367876.2184085,0.0762314275208755,0.05922605868637941,0.0956350767430897,-0.04817395332532051,0.18817138671875,0.14288330078125,0.2322998046875,-0.1385498046875,2.0003856536829927,2.0003856536829927,2.0003856536829927,2.0003856536829927,1.4143499049680008,1.4143499049680008,1.4143499049680008,1.4143499049680008,0.0004747838622739306,0.0004877177601747834,0.0004702508316085793,0.0005746624282648491,0.0006411603855213588,0.0006645538476998302,0.0006330113722489023,0.0008270323307614447,-0.1070841431996508,-0.060422806350277164,0.18097007879080265,-1.131320019055168,-0.12100552447123886,1.494175581456437,2.0003856536829927,2.0003856536829927,2.0003856536829927,1.4143499049680008,1.4143499049680008,1.4143499049680008,0.0023354980246211216,0.0002957672446901044,0.0017677219951721685,0.005363868082494769,0.00034111869121032315,0.0036999061119968733,-1.2087912087912087,-1.5263157894736843,-1.1463273568536727,-0.70213996529786,-0.8646616541353384,-0.8207056101792944,-1.0133024869866976,-1.373048004626952,-1,-1,0,-1,-1,-1,-1,-1,2.0011574074074074,2.0011574074074074,2.0011574074074074,2.0011574074074074,2.0011574074074074,2.0011574074074074,2.0011574074074074,2.0011574074074074,1.4146227085012482,1.4146227085012482,1.4146227085012482,1.4146227085012482,1.4146227085012482,1.4146227085012482,1.4146227085012482,1.4146227085012482,430.56284211022836,119.05649913414202,429.9338326875388,425.4785353187991,158.39029585496215,215.67084383493471,93.32121236119819,150.7995065280307,39022.37762382513,7029.68408728805,38946.38572834383,38409.195005131136,10285.760896225323,15523.402365059983,5080.488749993043,9633.813285077595
e,0.14221961177128978,-1.3270866697823396,1.5361477893110593,-0.37939453125,-2.75146484375,1.6259765625,2.0003810975609757,2.0003810975609757,2.0003810975609757,1.4143482942899799,1.4143482942899799,1.4143482942899799,0.268349418814965,0.3502629824061795,0.2037334110494034,3.0081055409938817,4.29092752543537,2.083412183894041,52.11533149171271,60.47254238902648,-36.11693894075062,48,48,-0.0625,2.0003810975609757,2.0003810975609757,2.0003810975609757,1.4143482942899799,1.4143482942899799,1.4143482942899799,535327.8537162737,528631.1543607456,609510.9215182086,755414491.7346966,742840995.4146769,898119612.192535,0.07450151870445561,0.06605564378333968,0.10842123992739688,-0.03939726893664269,0.18829345703125,0.1583251953125,0.26324462890625,-0.12261962890625,2.0003810975609757,2.0003810975609757,2.0003810975609757,2.0003810975609757,1.4143482942899799,1.4143482942899799,1.4143482942899799,1.4143482942899799,0.00047045341565434494,0.0004768527591100836,0.0004553981251793965,0.0005605624134899197,0.0006358885801369185,0.0006474475483803599,0.0006089016843144376,0.0008032624953213517,-0.10661537920052376,-0.04700897276530537,0.20067295338576263,-1.1271024793439366,-0.09563240248108588,1.5552651473864632,2.0003810975609757,2.0003810975609757,2.0003810975609757,1.4143482942899799,1.4143482942899799,1.4143482942899799,0.0023069205065098246,0.0002851235405800601,0.0017121999956842828,0.005297476396362653,0.0003261391673055721,0.0035598484788272205,-1.217142857142857,-1.4942857142857142,-1.108,-0.6245714285714286,-0.8325714285714285,-0.8,-1.0417142857142858,-1.376,-1,-1,0,-1,-1,-1,-1,-1,2.0011435105774726,2.0011435105774726,2.0011435105774726,2.0011435105774726,2.0011435105774726,2.0011435105774726,2.0011435105774726,2.0011435105774726,1.4146177966424263,1.4146177966424263,1.4146177966424263,1.4146177966424263,1.4146177966424263,1.4146177966424263,1.4146177966424263,1.4146177966424263,425.48365767786186,117.49377568187703,424.3980232098015,419.611603423236,156.32730280947706,212.95504492492887,92.30440191839948,149.00606512709277,38564.691501369394,6934.776940963743,38433.54868460211,37856.69258541268,10148.280500613533,15324.862747246723,5027.0040266633205,9519.583433694133
f,-9.590640190972222,-8.399713541666667,11.168956163194444,-9.00341796875,-8.748046875,11.24951171875,2.0089285714285716,2.0089285714285716,2.0089285714285716,1.417366773784602,1.417366773784602,1.417366773784602,0.11665532385511897,21.649671374524726,0.08773159699029638,0.3466838341151471,366.9970590390256,0.23710218305146483,-81.74638888888889,33.18,191.99166666666667,-48.0625,0,160,2.0089285714285716,2.0089285714285716,2.0089285714285716,1.417366773784602,1.417366773784602,1.417366773784602,804417.9931261276,171351.37180726076,508337.1320540656,455026343.97448593,57886543.812280186,246753479.38494462,-0.45558268229166665,0.5799666341145834,0.6008957248263889,0.8300534396701389,-0.404541015625,1.01788330078125,1.12493896484375,0.94012451171875,2.0089285714285716,2.0089285714285716,2.0089285714285716,2.0089285714285716,1.417366773784602,1.417366773784602,1.417366773784602,1.417366773784602,0.00010790602763930402,0.0040613796329615065,0.004274291635846589,0.00005549446405675339,0.00003124556959855374,0.0039411741125552355,0.0042190341481101274,0.000012874401673167687,1.0824649952882581,1.0574081870797827,1.3750660480989678,1.9374327693104354,1.5707963267948966,2.7737870352391907,2.0089285714285716,2.0089285714285716,2.0089285714285716,1.417366773784602,1.417366773784602,1.417366773784602,0.01358359082316082,0.00021120696354253474,0.008413297396132747,0.01971273848942097,0.00007650182868224779,0.010407565682328764,-1.76,-1.0933333333333333,-0.76,-0.5733333333333334,-0.7066666666666667,-0.6266666666666667,-0.8,-1.92,1,-1,-1,-1,-1,-1,-1,0,2.027027027027027,2.027027027027027,2.027027027027027,2.027027027027027,2.027027027027027,2.027027027027027,2.027027027027027,2.027027027027027,1.4237369936287485,1.4237369936287485,1.4237369936287485,1.4237369936287485,1.4237369936287485,1.4237369936287485,1.4237369936287485,1.4237369936287485,109.90465131639648,2.4492420704496447,0.24559129118826134,1.312219222186003,0.23528813384664535,0.8230059790588881,0.9014329075672217,9.96407455878849,2220.11353642173,13.922889254742055,0.648591178708006,6.058460510920183,0.612567269583066,3.25255319596305,3.6722448649481483,90.42108470570251
f,-5.220286617831292,-3.136401204064588,8.03844698287862,-8.12890625,-6.873046875,10.74951171875,2.0044642857142856,2.0044642857142856,2.0044642857142856,1.4157910459224856,1.4157910459224856,1.4157910459224856,7.494972669117138,5.287753181158583,0.3776864491914408,112.31614400476656,70.54133599483418,2.090534398745655,11.188335189309576,94.29649220489978,113.8379732739421,-32.0625,32,144,2.0044642857142856,2.0044642857142856,2.0044642857142856,1.4157910459224856,1.4157910459224856,1.4157910459224856,6172998.988466866,5568945.259660462,4382642.1754316315,8671157101.92368,7558681496.079742,5491994985.257586,-0.14105061486462972,0.3070385089695852,0.16334217640764198,0.5356078285947939,-0.310791015625,0.33056640625,0.10931396484375,0.92449951171875,2.0044642857142856,2.0044642857142856,2.0044642857142856,2.0044642857142856,1.4157910459224856,1.4157910459224856,1.4157910459224856,1.4157910459224856,0.007546875618268903,0.0035147978790965218,0.004861806127547588,0.002400046414883337,0.011335439677113776,0.004092128421750619,0.006306847006533309,0.0024606034839125233,0.8404555768687819,0.4398140732082817,0.7909322426885286,1.9167782191346163,1.5707963267948966,2.2986626502615373,2.0044642857142856,2.0044642857142856,2.0044642857142856,1.4157910459224856,1.4157910459224856,1.4157910459224856,0.009535108005840754,0.0011353337444997842,0.010022919509265723,0.01548280352416346,0.0009069433802575391,0.01654783203088813,-3.3087248322147653,-5,-2.9865771812080535,-1.0671140939597314,-0.7315436241610739,-1.3825503355704698,-2.040268456375839,-1.8523489932885906,-1,-2,-1,-1,-1,-1,-1,-2,2.0135135135135136,2.0135135135135136,2.0135135135135136,2.0135135135135136,2.0135135135135136,2.0135135135135136,2.0135135135135136,2.0135135135135136,1.41898326752415,1.41898326752415,1.41898326752415,1.41898326752415,1.41898326752415,1.41898326752415,1.41898326752415,1.41898326752415,3067.936684311744,5402.611045858696,5159.141418977298,1161.099856269329,1586.1681347618173,113.12571188283665,101.06113768673869,701.8299923393973,236332.77044430145,502574.395607671,472605.38555663143,64697.60208681588,98068.09008601804,2900.5288512004945,2495.596302011938,33065.21271649309
